Username,Window Number,Start Time,End Time,EMG Values
noel1,1,08:47:49.947,08:47:50.946,"[1.7914666665845609, 1.2762502543718035, 0.2887702434952057, 0.0, 0.0, 0.0, 0.0, 120.72559564797962, 68.96848224145097, 0.0, 0.4807797701297316, 8.270463822196263, 11.473795982407154, 1.66662694133973, 0.0, 0.0, 17.872042738313215, 16.294117974709966, 11.068001537189726, 8.188463328875162, 0.0, 0.0, 5.2955766359467065, 12.920720582217118, 10.05718364117968, 6.994826072363779, 4.24774817874228, 0.618174322723787, 2.0492793995640577, 6.954802989156224, 8.138843967031464, 6.399157936385407, 5.335033152371882, 4.271998099148673, 3.473367081870211, 4.494739471049656, 5.83180530524699, 5.875551384962018, 5.671812497870844, 5.411204630262617, 4.377315069484112, 3.9235953053392874, 4.994849684917488, 5.858545444842614, 5.530180688014381, 4.944483336949694, 4.5836036240313485, 4.497351747564244, 4.955444981882367, 5.483392317272003, 5.256184420796496, 4.720424496806433, 4.674255205004257, 4.966387246237576, 5.114849679186926, 4.914957944974283, 4.636770009674783, 4.8739764804398895, 5.288038760641375, 5.087935586144145, 4.622745108224685, 4.656609087272739, 4.907266079682013, 5.0409149598657805, 5.126012687004103, 4.875015685772281, 4.434375330895165, 4.698754159915845, 5.304478838811445, 5.153154119883997, 4.624019466538759, 4.647168922309096, 4.886604385448613, 4.851472754358056, 4.9525351544073954, 4.851013838152561, 4.461503154376783, 4.667157473006122, 5.230654356677504, 5.072717217793613, 4.569160900496899, 4.594042554976422, 4.820772746842924, 4.914606814483212, 5.018636129542486, 4.8234770902547695, 4.4047477893048, 4.634680218085161, 5.2249650162005, 5.067697279045308, 4.520368964671948, 4.547250410004556, 4.886641515759145, 4.992213117101413, 4.824182868768104, 4.567840014252626, 4.5462159878923565, 4.916629167821091, 5.1502674524950365, 4.834719180210075, 4.479568977355555, 4.5661177185594335, 4.888669832916194, 5.044411090910406, 4.7674864140742645, 4.401775884576176, 4.656060692688039, 5.146966010484133, 4.978117160497615, 4.523328074563163, 4.541528761571551, 4.766899665921373, 4.854313395720301, 4.961544569182675, 4.851671650566013, 4.435629818856723, 4.414494971217201, 4.946677935966612, 5.192552324859219, 4.805904151656327, 4.448752301331044, 4.536505843381178, 4.802380373544424, 4.989235935708408, 4.859502987720964, 4.492172039715909, 4.421724916674536, 4.866187766077042, 5.231601673567595, 4.913656938210955, 4.189401936075559, 4.188295172136131, 5.188212571261236, 5.544154031804462, 4.502331087979347, 3.846910322738214, 4.649122484777551, 5.372236031917906, 4.97461551175192, 4.49752617945238, 4.566065303158649, 4.644559700213854, 4.643685513421676, 4.900910510534443, 4.9795127639544825, 4.541846671482747, 4.392058607426752, 4.848044338332513, 5.006177194288911, 4.657758527873342, 4.527830680124407, 4.695946267863475, 4.79455191088384, 4.863374931984046, 4.753331732145375, 4.424614107970179, 4.513330437831242, 5.019595870055472, 4.969213047866446, 4.491290143987998, 4.550249701483646, 4.897616893298292, 4.8472387348203325, 4.587993063409212, 4.448076481434673, 4.526993526130256, 4.964070939981809, 5.281831578521859, 4.6842634549830615, 3.947309839652926, 4.384502221287308, 5.319356107880886, 5.2491354177488905, 4.402561928389142, 4.153115555246261, 4.779637775239738, 5.117547240953284, 4.629181306717883, 4.399626113584452, 4.817247035037558, 4.936198835034578, 4.646891089406069, 4.606520867584264, 4.645824817986183, 4.595501709599746, 4.744382343509635, 4.883323166983759, 4.723447187274116, 4.573521848122429, 4.642755105616223, 4.702037483522894, 4.691588364987569, 4.720997577999068, 4.740450167343584, 4.6801928804336175, 4.649829714833504, 4.679260925198098, 4.698733310243481, 4.68831292071045, 4.707796037382464, 4.697383703515527, 4.67700718940116, 4.676568965437186, 4.686103061848199, 4.685673215172325, 4.685247268339045, 4.704764028233683, 4.724286044348796, 4.624171270205731, 4.504111967826842, 4.67320315590605, 5.001849269452136, 4.941630612549673, 4.442647824115476, 4.262746449796236, 4.661244884712875, 4.989962444459921, 4.800098233836535, 4.5703312153555125, 4.669688954646169, 4.709211251983005, 4.648994887285072, 4.688525114892311, 4.568460672886381, 4.508244031570783, 4.936829910233201, 5.086118941127252, 4.437329024824983, 4.0877983613504885, 4.69601147448413, 5.234421235988141, 4.954732446335148, 4.425595637595969, 4.275586996999563, 4.554625259534683, 4.903527374033445, 4.95309596522767, 4.663394342476647, 4.39363916971073, 4.542998012554199, 4.931871347876566, 4.941539796877766, 4.512098361619528, 4.312181289527358, 4.6212516704626125, 4.940318293590976, 4.860172713954611, 4.58040760786743, 4.410425287257091, 4.579803250781947, 4.938839357490842, 4.968494893478267, 4.509039111026763, 4.269174022288161, 4.608276093315758, 4.947393207071407, 4.877234558680029, 4.587451762818703, 4.417456957497016, 4.5669218048943945, 4.926045919890736, 4.955725716247723, 4.516170691697717, 4.276281224967232, 4.625448642899463, 4.964645429149933, 4.774678961376776, 4.474877009098785, 4.594428019966096, 4.813834095632139, 4.773636040547029, 4.663541475623847, 4.493532557205447, 4.393419030587421, 4.7326760578609255, 5.061959038902355, 4.782105781591423, 4.352453163402686, 4.442078081791939, 4.781368670810902, 4.821072316555521, 4.720964108219964, 4.660802072673825, 4.5107566251147535, 4.57043879177945, 4.839857083403242, 4.679824747594631, 4.369976232762094, 4.659382067709922, 5.028699231525114, 4.808738672370131, 4.448940922853735, 4.418745756709932, 4.568340788516336, 4.777871372450539, 4.9674311641519, 4.757449752214203, 4.287755999502704, 4.40739806752031, 4.936594103232469, 4.90641175266442, 4.576552357790714, 4.556356943672919, 4.566130663401913, 4.5858953323443865, 4.815445058208868, 4.805245702824599, 4.475370325576491, 4.415219312826765, 4.744682505142761, 4.994231855587551, 4.87414564725573, 4.384412624485464, 4.114462210922367, 4.613784855874066, 5.213025447158621, 4.96305988994945, 4.403372458745931, 4.383189328759592, 4.612784138092937, 4.682525237357697, 4.732286026294911, 4.772057298795021, 4.651966892467905, 4.641782282021234, 4.691548224182594, 4.471539440819085, 4.431380311503487, 4.840856658430817, 4.960573455403781, 4.650634405818497, 4.570510408852811, 4.500378180412724, 4.320330255358534, 4.769800892835328, 5.219279578007916, 4.639533576221524, 4.059779257890932, 4.579214370409384, 5.098658318549615, 4.748732279973582, 4.408794651229066, 4.54851713020867, 4.728214796293446, 4.797991154325694, 4.707877624423194, 4.407904236302383, 4.347768226641285, 4.807291092592847, 5.156892500440414, 4.796955227653866, 4.147197876485838, 4.19699259536227, 4.916372263172268, 5.216020504752616, 4.696172197268476, 4.176317740338567, 4.316064314490789, 4.8255954853014265, 5.045302756638696, 4.765301571661732, 4.435326022795429, 4.415172240484948, 4.594907316576929, 4.814623152807534, 4.844445936109551, 4.534453189054547, 4.384371979218916, 4.734025643868879, 4.903777970516726, 4.593780737089401, 4.443698835818623, 4.61345418932576, 4.773217026469075, 4.823036553736446, 4.592993989818197, 4.253002631086267, 4.532711968890808, 5.082297308319031, 4.912225359258829, 4.382318446913304, 4.382164497002517, 4.631898194646999, 4.761688561076679, 4.881485179699345, 4.6614319127131205, 4.221471905547183, 4.471213730442559, 5.070810901941143, 4.910731230133457, 4.370807126152723, 4.390650239113781, 4.7403611403444685, 4.850171329211718, 4.68009318001841, 4.420048948055793, 4.399910581488659, 4.77962055066944, 4.99939444265648, 4.679371097185375, 4.449312397801351, 4.549132575843013, 4.48901135938278, 4.578837003330543, 4.998548469562008, 4.818471155387381, 4.288512238057838, 4.508296471620691, 4.898026286647223, 4.647970324512912, 4.457893265763622, 4.6776834166785, 4.71753282040075, 4.657414280918337, 4.717258528465934, 4.517183131832297, 4.377088496517149, 4.776832148634085, 4.986635127500888, 4.596614554779948, 4.396536935898982, 4.596344800814018, 4.656193684608311, 4.696048895233135, 4.885863803316895, 4.625801678436622, 4.165791327051958, 4.495570693437226, 5.125274882567791, 4.905201179728769, 4.345212226587533, 4.385070343820278, 4.734852803108524, 4.854693715056665, 4.60462437658376, 4.304565596570498, 4.554376961676359, 5.094123478263181, 4.924034869141446, 4.274053045711247, 4.253928380417574, 4.743692759618546, 4.863539922483542, 4.68345170903672, 4.643333467641057, 4.63320910994573, 4.533103296177196, 4.5029831763102, 4.612835508566905, 4.802673158053297, 4.782552496255688, 4.522477463232272, 4.512354628523148, 4.762184183981773, 4.702071567459138, 4.362008945159308, 4.411876142712715, 4.881671003152817, 5.011526667361708, 4.62147082450739, 4.321398345382156, 4.421259270903915, 4.721088766611917, 4.920935838430226, 4.750841880634562, 4.3507827026095125, 4.3106673985822495, 4.780476183284694, 5.030319667499663, 4.700248262406211, 4.360177004198039, 4.4300471245116215, 4.699890283251881, 4.879747056462456, 4.729648794506399, 4.369577616024305, 4.339462592073193, 4.789286837124651, 5.019140621785303, 4.689064207780896, 4.348987847354318, 4.428860564873975, 4.728708209226039, 4.898572143286033, 4.638485311894612, 4.258410923776937, 4.518265787879284, 5.028095195978031, 4.828001113597006, 4.35793424764028, 4.497804206697263, 4.737664960422263, 4.567566701723849, 4.617446993847143, 4.807314521086425, 4.517227081133649, 4.407122559271348, 4.8569682368004, 4.886852119144563, 4.416778877351525]"
noel1,2,08:47:50.447,08:47:51.446,"[4.938839357490842, 4.968494893478267, 4.509039111026763, 4.269174022288161, 4.608276093315758, 4.947393207071407, 4.877234558680029, 4.587451762818703, 4.417456957497016, 4.5669218048943945, 4.926045919890736, 4.955725716247723, 4.516170691697717, 4.276281224967232, 4.625448642899463, 4.964645429149933, 4.774678961376776, 4.474877009098785, 4.594428019966096, 4.813834095632139, 4.773636040547029, 4.663541475623847, 4.493532557205447, 4.393419030587421, 4.7326760578609255, 5.061959038902355, 4.782105781591423, 4.352453163402686, 4.442078081791939, 4.781368670810902, 4.821072316555521, 4.720964108219964, 4.660802072673825, 4.5107566251147535, 4.57043879177945, 4.839857083403242, 4.679824747594631, 4.369976232762094, 4.659382067709922, 5.028699231525114, 4.808738672370131, 4.448940922853735, 4.418745756709932, 4.568340788516336, 4.777871372450539, 4.9674311641519, 4.757449752214203, 4.287755999502704, 4.40739806752031, 4.936594103232469, 4.90641175266442, 4.576552357790714, 4.556356943672919, 4.566130663401913, 4.5858953323443865, 4.815445058208868, 4.805245702824599, 4.475370325576491, 4.415219312826765, 4.744682505142761, 4.994231855587551, 4.87414564725573, 4.384412624485464, 4.114462210922367, 4.613784855874066, 5.213025447158621, 4.96305988994945, 4.403372458745931, 4.383189328759592, 4.612784138092937, 4.682525237357697, 4.732286026294911, 4.772057298795021, 4.651966892467905, 4.641782282021234, 4.691548224182594, 4.471539440819085, 4.431380311503487, 4.840856658430817, 4.960573455403781, 4.650634405818497, 4.570510408852811, 4.500378180412724, 4.320330255358534, 4.769800892835328, 5.219279578007916, 4.639533576221524, 4.059779257890932, 4.579214370409384, 5.098658318549615, 4.748732279973582, 4.408794651229066, 4.54851713020867, 4.728214796293446, 4.797991154325694, 4.707877624423194, 4.407904236302383, 4.347768226641285, 4.807291092592847, 5.156892500440414, 4.796955227653866, 4.147197876485838, 4.19699259536227, 4.916372263172268, 5.216020504752616, 4.696172197268476, 4.176317740338567, 4.316064314490789, 4.8255954853014265, 5.045302756638696, 4.765301571661732, 4.435326022795429, 4.415172240484948, 4.594907316576929, 4.814623152807534, 4.844445936109551, 4.534453189054547, 4.384371979218916, 4.734025643868879, 4.903777970516726, 4.593780737089401, 4.443698835818623, 4.61345418932576, 4.773217026469075, 4.823036553736446, 4.592993989818197, 4.253002631086267, 4.532711968890808, 5.082297308319031, 4.912225359258829, 4.382318446913304, 4.382164497002517, 4.631898194646999, 4.761688561076679, 4.881485179699345, 4.6614319127131205, 4.221471905547183, 4.471213730442559, 5.070810901941143, 4.910731230133457, 4.370807126152723, 4.390650239113781, 4.7403611403444685, 4.850171329211718, 4.68009318001841, 4.420048948055793, 4.399910581488659, 4.77962055066944, 4.99939444265648, 4.679371097185375, 4.449312397801351, 4.549132575843013, 4.48901135938278, 4.578837003330543, 4.998548469562008, 4.818471155387381, 4.288512238057838, 4.508296471620691, 4.898026286647223, 4.647970324512912, 4.457893265763622, 4.6776834166785, 4.71753282040075, 4.657414280918337, 4.717258528465934, 4.517183131832297, 4.377088496517149, 4.776832148634085, 4.986635127500888, 4.596614554779948, 4.396536935898982, 4.596344800814018, 4.656193684608311, 4.696048895233135, 4.885863803316895, 4.625801678436622, 4.165791327051958, 4.495570693437226, 5.125274882567791, 4.905201179728769, 4.345212226587533, 4.385070343820278, 4.734852803108524, 4.854693715056665, 4.60462437658376, 4.304565596570498, 4.554376961676359, 5.094123478263181, 4.924034869141446, 4.274053045711247, 4.253928380417574, 4.743692759618546, 4.863539922483542, 4.68345170903672, 4.643333467641057, 4.63320910994573, 4.533103296177196, 4.5029831763102, 4.612835508566905, 4.802673158053297, 4.782552496255688, 4.522477463232272, 4.512354628523148, 4.762184183981773, 4.702071567459138, 4.362008945159308, 4.411876142712715, 4.881671003152817, 5.011526667361708, 4.62147082450739, 4.321398345382156, 4.421259270903915, 4.721088766611917, 4.920935838430226, 4.750841880634562, 4.3507827026095125, 4.3106673985822495, 4.780476183284694, 5.030319667499663, 4.700248262406211, 4.360177004198039, 4.4300471245116215, 4.699890283251881, 4.879747056462456, 4.729648794506399, 4.369577616024305, 4.339462592073193, 4.789286837124651, 5.019140621785303, 4.689064207780896, 4.348987847354318, 4.428860564873975, 4.728708209226039, 4.898572143286033, 4.638485311894612, 4.258410923776937, 4.518265787879284, 5.028095195978031, 4.828001113597006, 4.35793424764028, 4.497804206697263, 4.737664960422263, 4.567566701723849, 4.617446993847143, 4.807314521086425, 4.517227081133649, 4.407122559271348, 4.8569682368004, 4.886852119144563, 4.416778877351525, 4.396666651177841, 4.706527510945187, 4.796407214504149, 4.706301536179872, 4.496204987161804, 4.406098882815249, 4.715963081602307, 4.895837813012391, 4.605746579139826, 4.415647689776581, 4.565525296212903, 4.735402170257539, 4.795286843652082, 4.665183924467573, 4.355091983544856, 4.334981691588938, 4.814841773608327, 5.054717247522272, 4.68462812168878, 4.314538152374005, 4.4044224580394005, 4.7042960414201564, 4.88417671469519, 4.734074577121694, 4.353983486167863, 4.30387580226187, 4.853740134106154, 5.123618636372494, 4.503537325645052, 4.103445207179524, 4.593314907314843, 5.013188697042234, 4.813088206189317, 4.502991649123068, 4.322889647702409, 4.352779700359108, 4.852653228065411, 5.162534452598779, 4.632444556223998, 4.132352732170395, 4.442234487945342, 4.882112975136397, 4.802007811167951, 4.541907763496174, 4.521800666419553, 4.631690135718706, 4.651582238577666, 4.621475728290833, 4.631368287752821, 4.63126119026259, 4.611154635606873, 4.611047700441879, 4.620940642021637, 4.6208338874843005, 4.620727216931338, 4.62062062883461, 4.6205141216705385, 4.62040769392001, 4.62030134406831, 4.620195070605057, 4.620088872024039, 4.639982454642177, 4.659876134775289, 4.569771377681802, 4.439667088084581, 4.619558949920013, 4.979449010479879, 4.819345256054078, 4.199246181077011, 4.1791405610989845, 4.89902805268432, 5.168920329785579, 4.588820037959226, 4.2087176595476885, 4.408610678411926, 4.628503797185286, 4.868397032023167, 5.018291069227654, 4.5081890352353735, 4.048086375081997, 4.617978339812338, 5.177870819284066, 4.607768489670952, 4.117665499153972, 4.627558684739219, 4.997452684232584, 4.717348851882153, 4.457244839241309, 4.347140361234589, 4.46703536952256, 4.946929784044913, 5.086825017411427, 4.476721436778301, 3.9966174715377054, 4.406512386255699, 5.106407203333259, 5.076302824577769, 4.396198862165633, 4.08609455505148, 4.55598989337334, 5.045885342379806, 4.925781019206027, 4.455676737109919, 4.245572388754972, 4.435468019062885, 4.765363673088128, 4.94525934783849, 4.715155028526176, 4.365050718837097, 4.444946413054935, 4.764842086622392, 4.794737769546457, 4.55463350360206, 4.424529241844848, 4.514424917375548, 4.704320521020776, 4.854216098185907, 4.664111887608926, 4.364007825854997, 4.493903384700049, 4.81379864657754, 4.793694272572157, 4.523590310814936, 4.393486185740405, 4.4933816143139165, 4.723276666098563, 4.8731717907035454, 4.673067839059082, 4.36296433574225, 4.482859474316973, 4.802753739898516, 4.812649069455249, 4.552545592482564, 4.312442175183636, 4.392337212997383, 4.892229766372343, 5.112123591056182, 4.5020226111810056, 4.051921006422499, 4.541812797784131, 5.031704101439008, 4.841600583443212, 4.391499509152141, 4.2913955670495545, 4.621287433820915, 4.911179320948466, 4.7410758924898095, 4.410974451735907, 4.420869217004697, 4.6807607384975, 4.840653225562925, 4.770548668968931, 4.440447940614263, 4.190346363522002, 4.550235344401691, 5.090120785628198, 4.8800183996564535, 4.359921834131745, 4.3398165757400005, 4.58970601625729, 4.7495968369338994, 4.779490076132767, 4.519389527195753, 4.359287057664543, 4.769171404090141, 4.96906009584652, 4.378968236208852, 4.178867168404169, 4.768745126281952, 4.94863334659656, 4.588536655909252, 4.588429873787005, 4.61832208812542, 4.268226143767251, 4.398115183663466, 5.027987124762387, 4.917883250735587, 4.347795850133054, 4.437685390396513, 4.73756674406281, 4.567465551307406, 4.4873610442665655, 4.727243524913863, 4.717135870999936, 4.537035469015992, 4.556926511887362, 4.626815126906382, 4.586708599620719, 4.576600620605264, 4.636489117167773, 4.716376344652621, 4.676269443331788, 4.39617520546792, 4.346069117525012, 4.865931446163729, 5.025812713369747, 4.385739894765971, 4.145644898943231, 4.745499351320326, 4.955376274623213, 4.545291913321904, 4.4451884189059605, 4.635065799440716, 4.604957438212092, 4.54485110917387, 4.664732054550338, 4.674620462846812, 4.564517571038331, 4.574405811975462, 4.614291562471045, 4.594181757494761, 4.574071865610218, 4.6139569722344485, 4.703837616360003, 4.693726325077839, 4.393640103486319, 4.343532594116473, 4.843375432750944, 5.003247668165437, 4.46318482877561, 4.253092193593335, 4.562949513882638, 4.6928233972950055, 4.702708753527356, 4.852579492990095, 4.682483011321707, 4.202420050738094, 4.282297951297451, 4.8821179076799, 4.9819915656743134, 4.561924140611667, 4.391829089252484, 4.521698999325193, 4.671565780741027, 4.711445231078452, 4.521352981588718, 4.421249923741956, 4.731094258878867, 4.85096195501264, 4.530887519312444, 4.380791260351419, 4.5706486808821545, 4.660519026590061, 4.7003958562451, 4.740272286143317, 4.450196705526159, 4.300101393274529, 4.71992031302282, 4.929769298737804, 4.5597075788849]"
noel1,3,08:47:50.950,08:47:51.950,"[4.396666651177841, 4.706527510945187, 4.796407214504149, 4.706301536179872, 4.496204987161804, 4.406098882815249, 4.715963081602307, 4.895837813012391, 4.605746579139826, 4.415647689776581, 4.565525296212903, 4.735402170257539, 4.795286843652082, 4.665183924467573, 4.355091983544856, 4.334981691588938, 4.814841773608327, 5.054717247522272, 4.68462812168878, 4.314538152374005, 4.4044224580394005, 4.7042960414201564, 4.88417671469519, 4.734074577121694, 4.353983486167863, 4.30387580226187, 4.853740134106154, 5.123618636372494, 4.503537325645052, 4.103445207179524, 4.593314907314843, 5.013188697042234, 4.813088206189317, 4.502991649123068, 4.322889647702409, 4.352779700359108, 4.852653228065411, 5.162534452598779, 4.632444556223998, 4.132352732170395, 4.442234487945342, 4.882112975136397, 4.802007811167951, 4.541907763496174, 4.521800666419553, 4.631690135718706, 4.651582238577666, 4.621475728290833, 4.631368287752821, 4.63126119026259, 4.611154635606873, 4.611047700441879, 4.620940642021637, 4.6208338874843005, 4.620727216931338, 4.62062062883461, 4.6205141216705385, 4.62040769392001, 4.62030134406831, 4.620195070605057, 4.620088872024039, 4.639982454642177, 4.659876134775289, 4.569771377681802, 4.439667088084581, 4.619558949920013, 4.979449010479879, 4.819345256054078, 4.199246181077011, 4.1791405610989845, 4.89902805268432, 5.168920329785579, 4.588820037959226, 4.2087176595476885, 4.408610678411926, 4.628503797185286, 4.868397032023167, 5.018291069227654, 4.5081890352353735, 4.048086375081997, 4.617978339812338, 5.177870819284066, 4.607768489670952, 4.117665499153972, 4.627558684739219, 4.997452684232584, 4.717348851882153, 4.457244839241309, 4.347140361234589, 4.46703536952256, 4.946929784044913, 5.086825017411427, 4.476721436778301, 3.9966174715377054, 4.406512386255699, 5.106407203333259, 5.076302824577769, 4.396198862165633, 4.08609455505148, 4.55598989337334, 5.045885342379806, 4.925781019206027, 4.455676737109919, 4.245572388754972, 4.435468019062885, 4.765363673088128, 4.94525934783849, 4.715155028526176, 4.365050718837097, 4.444946413054935, 4.764842086622392, 4.794737769546457, 4.55463350360206, 4.424529241844848, 4.514424917375548, 4.704320521020776, 4.854216098185907, 4.664111887608926, 4.364007825854997, 4.493903384700049, 4.81379864657754, 4.793694272572157, 4.523590310814936, 4.393486185740405, 4.4933816143139165, 4.723276666098563, 4.8731717907035454, 4.673067839059082, 4.36296433574225, 4.482859474316973, 4.802753739898516, 4.812649069455249, 4.552545592482564, 4.312442175183636, 4.392337212997383, 4.892229766372343, 5.112123591056182, 4.5020226111810056, 4.051921006422499, 4.541812797784131, 5.031704101439008, 4.841600583443212, 4.391499509152141, 4.2913955670495545, 4.621287433820915, 4.911179320948466, 4.7410758924898095, 4.410974451735907, 4.420869217004697, 4.6807607384975, 4.840653225562925, 4.770548668968931, 4.440447940614263, 4.190346363522002, 4.550235344401691, 5.090120785628198, 4.8800183996564535, 4.359921834131745, 4.3398165757400005, 4.58970601625729, 4.7495968369338994, 4.779490076132767, 4.519389527195753, 4.359287057664543, 4.769171404090141, 4.96906009584652, 4.378968236208852, 4.178867168404169, 4.768745126281952, 4.94863334659656, 4.588536655909252, 4.588429873787005, 4.61832208812542, 4.268226143767251, 4.398115183663466, 5.027987124762387, 4.917883250735587, 4.347795850133054, 4.437685390396513, 4.73756674406281, 4.567465551307406, 4.4873610442665655, 4.727243524913863, 4.717135870999936, 4.537035469015992, 4.556926511887362, 4.626815126906382, 4.586708599620719, 4.576600620605264, 4.636489117167773, 4.716376344652621, 4.676269443331788, 4.39617520546792, 4.346069117525012, 4.865931446163729, 5.025812713369747, 4.385739894765971, 4.145644898943231, 4.745499351320326, 4.955376274623213, 4.545291913321904, 4.4451884189059605, 4.635065799440716, 4.604957438212092, 4.54485110917387, 4.664732054550338, 4.674620462846812, 4.564517571038331, 4.574405811975462, 4.614291562471045, 4.594181757494761, 4.574071865610218, 4.6139569722344485, 4.703837616360003, 4.693726325077839, 4.393640103486319, 4.343532594116473, 4.843375432750944, 5.003247668165437, 4.46318482877561, 4.253092193593335, 4.562949513882638, 4.6928233972950055, 4.702708753527356, 4.852579492990095, 4.682483011321707, 4.202420050738094, 4.282297951297451, 4.8821179076799, 4.9819915656743134, 4.561924140611667, 4.391829089252484, 4.521698999325193, 4.671565780741027, 4.711445231078452, 4.521352981588718, 4.421249923741956, 4.731094258878867, 4.85096195501264, 4.530887519312444, 4.380791260351419, 4.5706486808821545, 4.660519026590061, 4.7003958562451, 4.740272286143317, 4.450196705526159, 4.300101393274529, 4.71992031302282, 4.929769298737804, 4.5597075788849, 4.389615710164948, 4.569468110226677, 4.619340637236515, 4.669212679905483, 4.749079180009458, 4.479004863176887, 4.308914331788278, 4.718722302244465, 4.898568993375776, 4.528514219851333, 4.458405954570077, 4.658247406279022, 4.518151915135735, 4.508031951088988, 4.827847464904154, 4.647759775507263, 4.237718942200402, 4.567529691452847, 5.007315600736928, 4.687257611777718, 4.307213926406249, 4.457058259048222, 4.656890525462371, 4.716752243286194, 4.746620027146452, 4.48655318024152, 4.316466928507355, 4.676257812176897, 4.896079236980808, 4.566030734434519, 4.395945186632005, 4.575774321718387, 4.635631892477406, 4.665496332955937, 4.7353500201726, 4.465291067566513, 4.315202098673455, 4.714967495404413, 4.914783718303427, 4.544753823484707, 4.374670881229711, 4.5844823885883255, 4.644334605544351, 4.574223387502433, 4.644071608637483, 4.653936639840676, 4.5538340512369615, 4.533707693215146, 4.603553608907619, 4.603420302144813, 4.573296032516428, 4.573162107333165, 4.672995688548555, 4.762831356831078, 4.502781131427825, 4.172755931651692, 4.52250370583872, 5.082176559658543, 4.852117313369288, 4.322164461383834, 4.332024584438348, 4.571801868986228, 4.711612937428406, 4.85142238547575, 4.62136748491447, 4.171396782436595, 4.411167521322412, 5.020793477111899, 4.860712952491663, 4.340775087817073, 4.37062262110592, 4.620380844848436, 4.71020147439171, 4.720053773509834, 4.509997242285367, 4.359916967481513, 4.669641453836464, 4.859414223842324, 4.549402872798571, 4.389327914086817, 4.569102279215961, 4.638924014517013, 4.66876281398822, 4.718591570148446, 4.448568791802005, 4.308486941503922, 4.708148095314203, 4.907901078809113, 4.547924965835189, 4.377858393724196, 4.557618331583941, 4.5974464635833545, 4.647268505785349, 4.827022302225079, 4.567003250686469, 4.117086963172782, 4.45675366579175, 5.076264707356198, 4.846231627511889, 4.316366215558237, 4.356188734565141, 4.5958974304509335, 4.6956823943706105, 4.735500096873693, 4.515468158221231, 4.345408959671831, 4.655065587212218, 4.854783801525469, 4.544809024968515, 4.38474545994108, 4.574465847757907, 4.634264737862679, 4.664081226071034, 4.7138838147441975, 4.443892683925763, 4.303819397947593, 4.703389478671513, 4.913080512434337, 4.543160602009983, 4.353122155414344, 4.532829857901747, 4.68255519220172, 4.742341181240519, 4.642239810553625, 4.322298017950896, 4.282156173338149, 4.761630897797039, 5.01126874203889, 4.631376223446043, 4.271473772565931, 4.371222629041398, 4.660821456960665, 4.840501146565378, 4.690438971122987, 4.320554958031013, 4.280408930381228, 4.719869635134422, 4.969479218384666, 4.629577126329067, 4.279688621194663, 4.469344240122681, 4.768900670782977, 4.628834612465473, 4.388858392083892, 4.538538360037345, 4.758151650279403, 4.648060050770441, 4.498006405676489, 4.527787565207119, 4.5675578480369, 4.567364359966132, 4.607131606602098, 4.62691647586079, 4.576768484247522, 4.546600776624369, 4.566382760017637, 4.57617344382579, 4.575973129377574, 4.585761504293147, 4.585559070285958, 4.565376669169011, 4.565172401009681, 4.574956341958049, 4.574749867924635, 4.574542329904047, 4.584322624884645, 4.574124017547653, 4.573913220673057, 4.573701314728794, 4.573488288072455, 4.573274128907851, 4.593035204786247, 4.612794626842413, 4.522685037219592, 4.392625296977349, 4.572185921499613, 4.931516667976145, 4.771490741151887, 4.15205242557852, 4.131858843387784, 4.850704105497053, 5.140092424681252, 4.560624623691402, 4.0710511529991065, 4.26056967975889, 4.759657360085226, 5.059005764603657, 4.799126513227487, 4.149804319089282, 4.0597009472461645, 4.768444970514595, 5.147646924258883, 4.608191159559832, 4.078735948437934, 4.368061937063444, 4.867057721431493, 4.756973643139679, 4.427233509505163, 4.51684310437779, 4.626416377705287, 4.536305276315406, 4.615919937033551, 4.655595774956141, 4.335865181580033, 4.295675338171638, 4.784587831796387, 4.993959981968026, 4.56443000850153, 4.234739488779193, 4.364246392695261, 4.66344269346774, 4.832860454010782, 4.682854274945611, 4.303277020344126, 4.243115772557433, 4.7019734973670735, 4.961191988703811, 4.631536113184963, 4.2819312998285, 4.361491359108827, 4.640647066154863, 4.800030403528763, 4.66001627837692, 4.30046005611844, 4.27023021189224, 4.709008696272277, 4.958169401879693, 4.618588086623501, 4.2790209854607175, 4.33858629030798, 4.637611163337701, 4.906686289869148, 4.6469542833668696, 4.097902460426593, 4.307103639589748, 4.925323554158624, 4.825226540059666, 4.495687878963681, 4.515309974070305, 4.415224969486332, 4.384968147077809, 4.663926524978624, 4.613710115788646, 4.473726930892427, 4.74267579954384, 4.742320707522991, 4.303142302054006, 4.292822489350211, 4.641512478361734, 4.6610933528954055]"
noel2,1,08:47:56.235,08:47:57.234,"[1.7842254963559538, 1.2683292153896386, 0.2789167531885459, 0.0, 0.0, 0.0, 0.0, 121.070392565475, 69.0984260393982, 0.0, 0.4671246783880969, 8.281236545690206, 11.51860909410546, 1.5973271076454294, 0.0, 0.0, 18.194485533600528, 16.371831260367703, 10.766755074389772, 8.082965486587101, 0.0, 0.0, 5.236672583559048, 12.89101626990634, 9.923747925079482, 6.97982262826991, 4.668751133259229, 0.8283991156876294, 1.4820288756445743, 6.500638362978661, 8.539432411791305, 6.891481672760516, 5.2829239981037, 3.987370940851029, 3.222559982629338, 4.486643505332454, 6.3155626672197736, 6.215465778060178, 5.064870545327944, 4.792042902774893, 4.89880434577642, 4.671294619797431, 4.770807088477335, 5.295076245308887, 5.380037522374861, 5.058947849138816, 4.954802434181105, 4.917214138293563, 4.736658185742528, 4.823669614361823, 5.103469493047071, 5.134872436391025, 5.041426924879218, 4.957554692009084, 4.776819196794366, 4.809072579909073, 5.026439917122951, 4.874811812750257, 4.732601674983986, 5.157223183289228, 5.270234456636226, 4.588722863128996, 4.376844806383039, 5.022007555022725, 5.334307900008267, 5.014411357511314, 4.722980227008419, 4.559727167551033, 4.5856452200970415, 5.042156288379903, 5.357091147421934, 4.969288491963934, 4.654312422211214, 4.813336880881595, 4.789260842562717, 4.867288270772836, 4.993301014784263, 5.000415932490142, 4.611731452257762, 4.476214508067181, 4.937042016087981, 5.136202713232108, 4.7904168454839375, 4.6247069182007206, 4.785985784827805, 4.899765821749779, 4.868734170373911, 4.65325175535833, 4.602324674235843, 5.018360621780376, 5.15295174556591, 4.575927223439312, 4.358954850545856, 4.845149166120289, 5.04863470767518, 4.919722835617128, 4.849410282242131, 4.632026914808218, 4.463434682979405, 4.785305152451858, 5.048674374235304, 4.870314663393062, 4.69180131458312, 4.7294682318507215, 4.7180165649443, 4.70658654209564, 4.803478242335222, 4.841380144156188, 4.770954725829423, 4.73007475741563, 4.738493250747995, 4.737080672418119, 4.74555934295093, 4.773807087029422, 4.772478867934214, 4.751423050523931, 4.740256295055027, 4.738986448141411, 4.73773786436455, 4.746395387102502, 4.755077848922692, 4.7538945278988205, 4.742838112999015, 4.741690421200058, 4.740561003964593, 4.739449426084339, 4.738355265112515, 4.737278110989305, 4.7362175656694445, 4.735173242754418, 4.734144767129545, 4.733131774607899, 4.71231200278367, 4.71132573202391, 4.799580950382799, 4.818468287497465, 4.619199007810901, 4.568663389368628, 4.8058053334807065, 4.894206855629297, 4.655198095238679, 4.574921604899411, 4.812243218538368, 4.861034391723622, 4.641802919422285, 4.611177943031986, 4.7295067960851735, 4.748562964229799, 4.807362888315736, 4.836386293910775, 4.547528260613927, 4.437456417151288, 4.86393472880293, 5.022200166878097, 4.643838586068664, 4.593408296091061, 4.801421501248202, 4.572076134063144, 4.452059847429963, 4.938541116663824, 5.0770872437273225, 4.589163970317904, 4.419417047805364, 4.786738280061706, 4.845773476959476, 4.496973780721095, 4.59580460267681, 5.112519165700761, 4.9626792846384, 4.255596379574315, 4.2549568920822445, 4.931052530408652, 5.159381583334448, 4.750742326990845, 4.561040841257977, 4.610228999943532, 4.440417805426276, 4.559307384525721, 5.166075899163561, 5.085897382094498, 4.2589060590005765, 4.228467694595084, 4.954883578888808, 5.073878886301335, 4.625192003451273, 4.475268138816928, 4.594272914448027, 4.80294613020622, 4.981760412594437, 4.732222804756426, 4.263486732418922, 4.352647571532271, 5.019712139596716, 5.298244007457932, 4.709890929985534, 4.141419418593416, 4.40003223675482, 4.897852636450773, 4.957203932152014, 4.777363797655086, 4.587545817204822, 4.49739161968802, 4.736175191399232, 4.915171928474669, 4.605721177946636, 4.445786545527449, 4.754407176920871, 4.873628333350473, 4.663846495948008, 4.603611036179933, 4.692938062109725, 4.662620315025136, 4.652247148779876, 4.731623843178466, 4.721259226283324, 4.661034532072541, 4.660646524606985, 4.680208179937432, 4.689800813696099, 4.70937105381921, 4.629204480825269, 4.489189707569559, 4.748158139307123, 5.116869788307016, 4.76738488911933, 4.098664689855398, 4.327736401103578, 5.135439036483751, 5.1750060971834975, 4.516211484591392, 4.2464847365727145, 4.495560416442223, 4.8943134035138005, 5.063602304033495, 4.634225382852772, 4.224786065280206, 4.6634964855398096, 5.142145377111902, 4.722717195134583, 4.203480166491283, 4.442654305357666, 4.951291260806778, 5.020840963333911, 4.7111539616625056, 4.421416093115388, 4.431082577493472, 4.710230738534015, 4.959450219290854, 4.79945627893874, 4.3899246425141865, 4.369658104285198, 4.808552516378466, 5.027864053666136, 4.797990612466427, 4.488251670785772, 4.378153008598214, 4.597481172448164, 4.9066654636259255, 4.826523501739882, 4.50678252369713, 4.476551276915488, 4.7458289724509815, 4.88532885251234, 4.6853809742959776, 4.465459741309058, 4.604967354469325, 4.854310471949117, 4.734232462747948, 4.474365173265469, 4.534009522974514, 4.693508555801794, 4.773132164766717, 4.84277445562052, 4.772622432021158, 4.5027552904274994, 4.3527121028291065, 4.652037194875386, 4.971345028763389, 4.791347768716318, 4.461549856364949, 4.471288553763445, 4.740684371515562, 4.880259682951578, 4.720229647785495, 4.4902865553501705, 4.490046351273313, 4.759467976746405, 4.929022541454753, 4.629161699783561, 4.249391947780966, 4.568769649820021, 5.087918068821752, 4.887931060644121, 4.408267600023823, 4.42801541587634, 4.647536092715016, 4.757187865638506, 4.87683224879124, 4.766735744310202, 4.336989130601084, 4.306799377442951, 4.855986674927723, 5.105506603209417, 4.715706950007127, 4.365858182287689, 4.46553900791229, 4.755029265692319, 4.824748928769934, 4.574790891494152, 4.484670513459659, 4.764187293390505, 4.853894839905315, 4.653883154892188, 4.563764180844675, 4.463653845038391, 4.443468281263945, 4.892851367895941, 5.172398699731083, 4.632690378304958, 4.062999589883187, 4.332558768162293, 4.951818614212809, 5.10149640859929, 4.751604913955039, 4.401708072579014, 4.371538295610602, 4.671095769861334, 4.940683928969103, 4.71068287270626, 4.300823149747632, 4.550433587484377, 5.039860585708613, 4.839832741276421, 4.380002394920537, 4.439769769651696, 4.679403428137602, 4.779146029154286, 4.878891011707167, 4.648879058341156, 4.209015921659093, 4.478639842545243, 5.098021340550511, 4.927965204324299, 4.378170156303883, 4.387984520811233, 4.737569567682856, 4.847321206827003, 4.687254122543433, 4.437244528756503, 4.407089424390584, 4.786671449220483, 5.026348320735117, 4.706380992874533, 4.346434903449957, 4.436207998589406, 4.755843073505389, 4.915579310395272, 4.735520694410724, 4.375566425644055, 4.345415998336005, 4.79498926098142, 5.024694208070429, 4.69471838792705, 4.454688950165526, 4.544475181493746, 4.564301327676175, 4.674079764256998, 4.823838764832356, 4.583806036087311, 4.473703239210053, 4.823362213854772, 4.843194322241326, 4.433244445122163, 4.423090740242123, 4.712789301177251, 4.822579562105734, 4.822424724555679, 4.592380323723371, 4.222400159743302, 4.492117665902864, 5.091686129513592, 4.941603914147796, 4.391701313001871, 4.381552514908259, 4.651280543427173, 4.771077274905402, 4.780923178515648, 4.570863540815752, 4.42077705746929, 4.71050618743558, 4.900279810763021, 4.60025535815405, 4.4401721885277485, 4.61995267186673, 4.66978645435212, 4.699628949094447, 4.859422216359858, 4.609373144316899, 4.179389889535744, 4.519117594408665, 5.138746064714362, 4.908688369908912, 4.368740140270125, 4.418578990826699, 4.648355777774342, 4.64821438417672, 4.758035875443254, 4.837868812517322, 4.5578227636243245, 4.387738668250417, 4.587533323498333, 4.727349254011839, 4.767198422461994, 4.747067109481261, 4.566985573830125, 4.536857195037582, 4.68667462698624, 4.546580071129941, 4.456470135752, 4.826226122977026, 4.956054128116861, 4.536039437978705, 4.355954895532794, 4.595753317785053, 4.785567451777549, 4.735447957795581, 4.605349760820421, 4.545232644304447, 4.565094735480516, 4.634944519274843, 4.764779963482066, 4.754651510315869, 4.544572535700183, 4.464460974460965, 4.70427257013356, 4.804119125809634, 4.494062277938768, 4.403953185956412, 4.813730335886734, 4.9035820027135, 4.533536172411109, 4.433429576536106, 4.613262504824571, 4.643128614827927, 4.712986842760768, 4.8828251579248985, 4.592758286583656, 4.152720134044268, 4.512521648991322, 5.132274803486006, 4.902194993603276, 4.342176700708058, 4.392041768936453, 4.721855874682394, 4.731730051076045, 4.591631360464347, 4.611504035420087, 4.631377086424221, 4.591260766279909, 4.701119248197958, 4.750988501772957, 4.5608974822144, 4.47078968785946, 4.62064367164417, 4.810492395171948, 4.750380703380506, 4.4503052893670105, 4.390192957338993, 4.770016069561912, 4.909875822218047, 4.589801801009718, 4.439702798898644, 4.609559338093264, 4.669431756740397, 4.629317986801038, 4.669193790483208, 4.679073857878875, 4.588966864372975, 4.578849742418508, 4.63872422075176, 4.638606394130947, 4.628489966976352, 4.648370219340718, 4.638254195475708, 4.608140589505448, 4.618022652585259, 4.627904959301294, 4.627788573418164, 4.627672387860375, 4.637555371792204, 4.627440609448222, 4.617326004342962, 4.627209607642449, 4.607096304357595, 4.60698124215058, 4.716856242052819, 4.716741741963894, 4.426653111342652, 4.486533264183634, 4.92638142361837]"
noel2,2,08:47:56.734,08:47:57.734,"[4.369658104285198, 4.808552516378466, 5.027864053666136, 4.797990612466427, 4.488251670785772, 4.378153008598214, 4.597481172448164, 4.9066654636259255, 4.826523501739882, 4.50678252369713, 4.476551276915488, 4.7458289724509815, 4.88532885251234, 4.6853809742959776, 4.465459741309058, 4.604967354469325, 4.854310471949117, 4.734232462747948, 4.474365173265469, 4.534009522974514, 4.693508555801794, 4.773132164766717, 4.84277445562052, 4.772622432021158, 4.5027552904274994, 4.3527121028291065, 4.652037194875386, 4.971345028763389, 4.791347768716318, 4.461549856364949, 4.471288553763445, 4.740684371515562, 4.880259682951578, 4.720229647785495, 4.4902865553501705, 4.490046351273313, 4.759467976746405, 4.929022541454753, 4.629161699783561, 4.249391947780966, 4.568769649820021, 5.087918068821752, 4.887931060644121, 4.408267600023823, 4.42801541587634, 4.647536092715016, 4.757187865638506, 4.87683224879124, 4.766735744310202, 4.336989130601084, 4.306799377442951, 4.855986674927723, 5.105506603209417, 4.715706950007127, 4.365858182287689, 4.46553900791229, 4.755029265692319, 4.824748928769934, 4.574790891494152, 4.484670513459659, 4.764187293390505, 4.853894839905315, 4.653883154892188, 4.563764180844675, 4.463653845038391, 4.443468281263945, 4.892851367895941, 5.172398699731083, 4.632690378304958, 4.062999589883187, 4.332558768162293, 4.951818614212809, 5.10149640859929, 4.751604913955039, 4.401708072579014, 4.371538295610602, 4.671095769861334, 4.940683928969103, 4.71068287270626, 4.300823149747632, 4.550433587484377, 5.039860585708613, 4.839832741276421, 4.380002394920537, 4.439769769651696, 4.679403428137602, 4.779146029154286, 4.878891011707167, 4.648879058341156, 4.209015921659093, 4.478639842545243, 5.098021340550511, 4.927965204324299, 4.378170156303883, 4.387984520811233, 4.737569567682856, 4.847321206827003, 4.687254122543433, 4.437244528756503, 4.407089424390584, 4.786671449220483, 5.026348320735117, 4.706380992874533, 4.346434903449957, 4.436207998589406, 4.755843073505389, 4.915579310395272, 4.735520694410724, 4.375566425644055, 4.345415998336005, 4.79498926098142, 5.024694208070429, 4.69471838792705, 4.454688950165526, 4.544475181493746, 4.564301327676175, 4.674079764256998, 4.823838764832356, 4.583806036087311, 4.473703239210053, 4.823362213854772, 4.843194322241326, 4.433244445122163, 4.423090740242123, 4.712789301177251, 4.822579562105734, 4.822424724555679, 4.592380323723371, 4.222400159743302, 4.492117665902864, 5.091686129513592, 4.941603914147796, 4.391701313001871, 4.381552514908259, 4.651280543427173, 4.771077274905402, 4.780923178515648, 4.570863540815752, 4.42077705746929, 4.71050618743558, 4.900279810763021, 4.60025535815405, 4.4401721885277485, 4.61995267186673, 4.66978645435212, 4.699628949094447, 4.859422216359858, 4.609373144316899, 4.179389889535744, 4.519117594408665, 5.138746064714362, 4.908688369908912, 4.368740140270125, 4.418578990826699, 4.648355777774342, 4.64821438417672, 4.758035875443254, 4.837868812517322, 4.5578227636243245, 4.387738668250417, 4.587533323498333, 4.727349254011839, 4.767198422461994, 4.747067109481261, 4.566985573830125, 4.536857195037582, 4.68667462698624, 4.546580071129941, 4.456470135752, 4.826226122977026, 4.956054128116861, 4.536039437978705, 4.355954895532794, 4.595753317785053, 4.785567451777549, 4.735447957795581, 4.605349760820421, 4.545232644304447, 4.565094735480516, 4.634944519274843, 4.764779963482066, 4.754651510315869, 4.544572535700183, 4.464460974460965, 4.70427257013356, 4.804119125809634, 4.494062277938768, 4.403953185956412, 4.813730335886734, 4.9035820027135, 4.533536172411109, 4.433429576536106, 4.613262504824571, 4.643128614827927, 4.712986842760768, 4.8828251579248985, 4.592758286583656, 4.152720134044268, 4.512521648991322, 5.132274803486006, 4.902194993603276, 4.342176700708058, 4.392041768936453, 4.721855874682394, 4.731730051076045, 4.591631360464347, 4.611504035420087, 4.631377086424221, 4.591260766279909, 4.701119248197958, 4.750988501772957, 4.5608974822144, 4.47078968785946, 4.62064367164417, 4.810492395171948, 4.750380703380506, 4.4503052893670105, 4.390192957338993, 4.770016069561912, 4.909875822218047, 4.589801801009718, 4.439702798898644, 4.609559338093264, 4.669431756740397, 4.629317986801038, 4.669193790483208, 4.679073857878875, 4.588966864372975, 4.578849742418508, 4.63872422075176, 4.638606394130947, 4.628489966976352, 4.648370219340718, 4.638254195475708, 4.608140589505448, 4.618022652585259, 4.627904959301294, 4.627788573418164, 4.627672387860375, 4.637555371792204, 4.627440609448222, 4.617326004342962, 4.627209607642449, 4.607096304357595, 4.60698124215058, 4.716856242052819, 4.716741741963894, 4.426653111342652, 4.486533264183634, 4.92638142361837, 4.666289703038437, 4.216212857478225, 4.74605605327812, 5.145911356045406, 4.5258467176954245, 4.205757637497462, 4.535619656362353, 4.685495894444714, 4.775377004408182, 4.895256459222994, 4.625162920645676, 4.315071403488092, 4.484947927151361, 4.724820639690452, 4.7947047553887945, 4.744596510221683, 4.464501943604937, 4.424392819386972, 4.804259898136879, 4.744152514879313, 4.364062432499965, 4.603938746417523, 4.923811684263288, 4.613717259616452, 4.383618269589908, 4.613496831966494, 4.683383546504426, 4.66327464751501, 4.823157851085473, 4.603057945762188, 4.162966903616091, 4.47284432288401, 5.0927102165108815, 4.952606996067703, 4.502515250918092, 4.3724109589045295, 4.382301535205145, 4.572186033472732, 4.922065665809784, 4.821960734198362, 4.391866117931589, 4.5317533446904, 4.89163442162353, 4.611534644313457, 4.281435840799946, 4.521321210292302, 4.8512047633159305, 4.921095523850395, 4.690993782975882, 4.320895029385437, 4.260788738378317, 4.57067436429576, 4.960558889030266, 5.080449577830864, 4.620351844122691, 4.090254813999129, 4.29014392484982, 4.860027000425136, 4.949918934715002, 4.689816642362922, 4.479713308051574, 4.429607433189633, 4.669497517313308, 4.839388908991125, 4.549286432753176, 4.389182097074631, 4.67907244354646, 4.798965054203577, 4.618860989058141, 4.558755601656122, 4.538649836507672, 4.498544287492757, 4.768436163650289, 4.908329381523455, 4.488226936566608, 4.288122627781614, 4.658014474681036, 4.847907788287522, 4.6678034134650215, 4.517698781041987, 4.457593635993087, 4.557487762903903, 4.877381079167493, 4.91727573684311, 4.43717230077139, 4.187067857207395, 4.566961451138024, 4.926855352968381, 4.826750583531968, 4.526646220436181, 4.356541494669867, 4.506436185481157, 4.886330632776187, 4.95622565266406, 4.396121408196508, 4.026016818937429, 4.625911393341817, 5.325806101905816, 4.885701582264193, 4.0455971297701705, 4.115492257012555, 4.815387286167114, 5.155282485197676, 4.835177788600651, 4.245073080606394, 4.14496833862882, 4.764863606161652, 5.144758887671013, 4.684654175249995, 4.154549488378764, 4.324444787814766, 4.804340032143967, 4.9742352789288375, 4.774130602382638, 4.464026000379829, 4.283921395589083, 4.5238165674825215, 4.893711569520437, 4.703606968458144, 4.353502592319935, 4.613397553244366, 4.9332923148934125, 4.643187953567812, 4.313083778501867, 4.47297869287989, 4.772873176910053, 4.852768069080266, 4.662663687662322, 4.332559845652369, 4.29245515417663, 4.752348531980784, 5.112241997945336, 4.78213832637489, 4.22203599214389, 4.251930920146646, 4.681823517907996, 4.931716834907043, 4.831612189805407, 4.451509541747689, 4.241405934221493, 4.581298148134772, 4.981189497701753, 4.771085814223471, 4.400983794484855, 4.440878058264483, 4.600770983361266, 4.720664125109248, 4.850556965550901, 4.600454212816024, 4.180353866484448, 4.470244506794149, 5.070130404577473, 4.880027019548199, 4.32992931361259, 4.359823038814123, 4.699711513293341, 4.819603262961341, 4.659499825221983, 4.38939861629184, 4.36929286387368, 4.749178967917415, 4.989067362491247, 4.668967532166279, 4.328868591100462, 4.418760043315971, 4.638648114047045, 4.788537495690712, 4.788430439987042, 4.478331639355218, 4.318229140446826, 4.688111635344318, 4.887998400547102, 4.577900297147645, 4.4277976490006274, 4.587685122917589, 4.637575876794996, 4.677466782106728, 4.737356799355927, 4.457259031764441, 4.3071568623273295, 4.82702898311721, 5.036912212944529, 4.376830454659489, 4.12673283570424, 4.73659856937984, 5.026476975433614, 4.706382332844676, 4.456285064905631, 4.316183018812317, 4.346072858129271, 4.795941378150969, 5.095816393632578, 4.705726985779104, 4.245642241163895, 4.3355280843394, 4.715397113843132, 4.895276623420741, 4.6351816713677625, 4.265093988531656, 4.49496987876202, 4.9748290915377895, 4.8147284287620975, 4.364647364505489, 4.394534861067607, 4.624408249740836, 4.714290740852949, 4.8141720916795485, 4.694069260846892, 4.283988550261152, 4.263878914307962, 4.803725143239512, 5.053592771783936, 4.663511845486678, 4.303429530348302, 4.393309911733369, 4.683172460236689, 4.873042724056853, 4.632950999918378, 4.252872825395245, 4.482738602871118, 4.9925766405967975, 4.822478889321509, 4.3524113308646495, 4.382294808520826, 4.622156399372766, 4.712032628866105, 4.811907269999343, 4.691805227385532, 4.281735505680718, 4.251624467096741, 4.801446994461428, 5.0513020704195775, 4.66123174817875, 4.301159198448064, 4.3910327874714765, 4.680880883375696, 4.870740236856488, 4.630653988321256, 4.2505869004438175, 4.480440016582381, 4.990254021955657, 4.8201591146947225, 4.350106688615805, 4.37998512966855, 4.639830022236676, 4.73969696692614, 4.739578121204607, 4.499495365207678, 4.349399685263041, 4.679229575995098]"
noel2,3,08:47:57.237,08:47:58.237,"[4.666289703038437, 4.216212857478225, 4.74605605327812, 5.145911356045406, 4.5258467176954245, 4.205757637497462, 4.535619656362353, 4.685495894444714, 4.775377004408182, 4.895256459222994, 4.625162920645676, 4.315071403488092, 4.484947927151361, 4.724820639690452, 4.7947047553887945, 4.744596510221683, 4.464501943604937, 4.424392819386972, 4.804259898136879, 4.744152514879313, 4.364062432499965, 4.603938746417523, 4.923811684263288, 4.613717259616452, 4.383618269589908, 4.613496831966494, 4.683383546504426, 4.66327464751501, 4.823157851085473, 4.603057945762188, 4.162966903616091, 4.47284432288401, 5.0927102165108815, 4.952606996067703, 4.502515250918092, 4.3724109589045295, 4.382301535205145, 4.572186033472732, 4.922065665809784, 4.821960734198362, 4.391866117931589, 4.5317533446904, 4.89163442162353, 4.611534644313457, 4.281435840799946, 4.521321210292302, 4.8512047633159305, 4.921095523850395, 4.690993782975882, 4.320895029385437, 4.260788738378317, 4.57067436429576, 4.960558889030266, 5.080449577830864, 4.620351844122691, 4.090254813999129, 4.29014392484982, 4.860027000425136, 4.949918934715002, 4.689816642362922, 4.479713308051574, 4.429607433189633, 4.669497517313308, 4.839388908991125, 4.549286432753176, 4.389182097074631, 4.67907244354646, 4.798965054203577, 4.618860989058141, 4.558755601656122, 4.538649836507672, 4.498544287492757, 4.768436163650289, 4.908329381523455, 4.488226936566608, 4.288122627781614, 4.658014474681036, 4.847907788287522, 4.6678034134650215, 4.517698781041987, 4.457593635993087, 4.557487762903903, 4.877381079167493, 4.91727573684311, 4.43717230077139, 4.187067857207395, 4.566961451138024, 4.926855352968381, 4.826750583531968, 4.526646220436181, 4.356541494669867, 4.506436185481157, 4.886330632776187, 4.95622565266406, 4.396121408196508, 4.026016818937429, 4.625911393341817, 5.325806101905816, 4.885701582264193, 4.0455971297701705, 4.115492257012555, 4.815387286167114, 5.155282485197676, 4.835177788600651, 4.245073080606394, 4.14496833862882, 4.764863606161652, 5.144758887671013, 4.684654175249995, 4.154549488378764, 4.324444787814766, 4.804340032143967, 4.9742352789288375, 4.774130602382638, 4.464026000379829, 4.283921395589083, 4.5238165674825215, 4.893711569520437, 4.703606968458144, 4.353502592319935, 4.613397553244366, 4.9332923148934125, 4.643187953567812, 4.313083778501867, 4.47297869287989, 4.772873176910053, 4.852768069080266, 4.662663687662322, 4.332559845652369, 4.29245515417663, 4.752348531980784, 5.112241997945336, 4.78213832637489, 4.22203599214389, 4.251930920146646, 4.681823517907996, 4.931716834907043, 4.831612189805407, 4.451509541747689, 4.241405934221493, 4.581298148134772, 4.981189497701753, 4.771085814223471, 4.400983794484855, 4.440878058264483, 4.600770983361266, 4.720664125109248, 4.850556965550901, 4.600454212816024, 4.180353866484448, 4.470244506794149, 5.070130404577473, 4.880027019548199, 4.32992931361259, 4.359823038814123, 4.699711513293341, 4.819603262961341, 4.659499825221983, 4.38939861629184, 4.36929286387368, 4.749178967917415, 4.989067362491247, 4.668967532166279, 4.328868591100462, 4.418760043315971, 4.638648114047045, 4.788537495690712, 4.788430439987042, 4.478331639355218, 4.318229140446826, 4.688111635344318, 4.887998400547102, 4.577900297147645, 4.4277976490006274, 4.587685122917589, 4.637575876794996, 4.677466782106728, 4.737356799355927, 4.457259031764441, 4.3071568623273295, 4.82702898311721, 5.036912212944529, 4.376830454659489, 4.12673283570424, 4.73659856937984, 5.026476975433614, 4.706382332844676, 4.456285064905631, 4.316183018812317, 4.346072858129271, 4.795941378150969, 5.095816393632578, 4.705726985779104, 4.245642241163895, 4.3355280843394, 4.715397113843132, 4.895276623420741, 4.6351816713677625, 4.265093988531656, 4.49496987876202, 4.9748290915377895, 4.8147284287620975, 4.364647364505489, 4.394534861067607, 4.624408249740836, 4.714290740852949, 4.8141720916795485, 4.694069260846892, 4.283988550261152, 4.263878914307962, 4.803725143239512, 5.053592771783936, 4.663511845486678, 4.303429530348302, 4.393309911733369, 4.683172460236689, 4.873042724056853, 4.632950999918378, 4.252872825395245, 4.482738602871118, 4.9925766405967975, 4.822478889321509, 4.3524113308646495, 4.382294808520826, 4.622156399372766, 4.712032628866105, 4.811907269999343, 4.691805227385532, 4.281735505680718, 4.251624467096741, 4.801446994461428, 5.0513020704195775, 4.66123174817875, 4.301159198448064, 4.3910327874714765, 4.680880883375696, 4.870740236856488, 4.630653988321256, 4.2505869004438175, 4.480440016582381, 4.990254021955657, 4.8201591146947225, 4.350106688615805, 4.37998512966855, 4.639830022236676, 4.73969696692614, 4.739578121204607, 4.499495365207678, 4.349399685263041, 4.679229575995098, 4.879078251635304, 4.569007797370278, 4.408914117772685, 4.578766251291136, 4.618639188294089, 4.658511680383749, 4.81836290125394, 4.568285244705484, 4.138240805444695, 4.478058749169819, 5.097823120247745, 4.8677425913747, 4.317723645618165, 4.357594081537078, 4.587427008416281, 4.697282114431665, 4.837130316868021, 4.637046586913722, 4.15702146387396, 4.3968482827275865, 5.126569534766145, 4.966477538262865, 4.136532228579305, 4.106414837100945, 4.876118151524405, 5.115936814309134, 4.575933206755325, 4.165902328729215, 4.335736610585701, 4.775504832049971, 4.985325776684984, 4.7152631419893645, 4.345226875422039, 4.335101796126211, 4.66488946244344, 4.884703120711569, 4.604646289767481, 4.2346149825537225, 4.504413404949986, 4.994149567284115, 4.794072746572879, 4.344067004337416, 4.393922317596534, 4.64371948569628, 4.643587210685532, 4.633457527942161, 4.6733126499610655, 4.583206373345821, 4.503097354572462, 4.562945239264121, 4.622792297953757, 4.612660732644311, 4.592532082298741, 4.572403211359147, 4.652241202728722, 4.762068171183324, 4.512015262262113, 4.181991309652131, 4.531734775222518, 5.081405011318606, 4.841349755202208, 4.311399958230933, 4.331254977842619, 4.591021414771474, 4.7308297034184905, 4.760677639361015, 4.520627452462432, 4.350552074752324, 4.650295018113084, 4.850074143845461, 4.550050024182832, 4.399967829039856, 4.599743998474871, 4.659575531665109, 4.579464404595226, 4.609307193202304, 4.629153491939629, 4.549042276308567, 4.5389008254566585, 4.608723681725188, 4.608576608268061, 4.588438079898717, 4.598285563559263, 4.598137067907219, 4.56800208698439, 4.577848021246301, 4.59768856389818, 4.587542872949421, 4.587391886682498, 4.587240377964235, 4.587088342033158, 4.57694082550264, 4.566792884683717, 4.566639351700716, 4.676427832383793, 4.686267286652073, 4.406260869260148, 4.336143846529788, 4.755759724905305, 4.8955244670573, 4.5255713675954246, 4.355509425662511, 4.525255189911929, 4.675009779416199, 4.7647968386522015, 4.654699925487931, 4.314740724597673, 4.284598750073881, 4.764146318187113, 5.013828376982115, 4.633898054373836, 4.293947041320092, 4.393720558236832, 4.593427879865335, 4.75315774447309, 4.78296996826977, 4.463013093257901, 4.292959584243016, 4.662542171417172, 4.862235074796251, 4.542284055643262, 4.402211201415734, 4.571920684681461, 4.611719741177883, 4.631531902402258, 4.691313847614681, 4.521263676296533, 4.381193066571802, 4.62083780959013, 4.770546459482635, 4.520559519589135, 4.4104670660462055, 4.670085060796546, 4.819785266426768, 4.589786939320625, 4.269864637087508, 4.369602977882991, 4.799065641346996, 4.88880439117376, 4.538912630800854, 4.378863936598036, 4.498575578189975, 4.55833653515287, 4.67804264246673, 4.847701113296605, 4.547778554283956, 4.107988092095739, 4.447488224728983, 5.056730154954303, 4.836738260464984, 4.317034241643883, 4.346812521098188, 4.566405277396475, 4.656119841485005, 4.775801924724578, 4.665710351644331, 4.315862405181764, 4.385592341419782, 4.765000187379471, 4.784773871237981, 4.45491453323188, 4.32484866214535, 4.644300919042472, 4.953755784472123, 4.633894028315732, 4.154215991920607, 4.353785862911806, 4.823044160808099, 4.8128395531506944, 4.56291159987861, 4.422859996097249, 4.412657150246679, 4.672131174523584, 4.821730170181343, 4.491909139886939, 4.301922929086159, 4.611318167503105, 4.7609053050120576, 4.590893922182165, 4.550718848379321, 4.510543588238182, 4.350525550880719, 4.599967176685884, 5.04913257886822, 4.709353396646478, 3.980116157888326, 4.21955751132188, 5.058152093329693, 4.978019673044878, 4.208873014080775, 4.238594275597506, 4.807525981463752, 4.807278427891304, 4.547416558539015, 4.467290522786362, 4.307287271122047, 4.366949479035398, 4.955784574147803, 5.045383832898203, 4.26635966050409, 4.026493914295343, 4.675191303195439, 4.934503845534593, 4.624750162358734, 4.4348048335564885, 4.384627636397609, 4.564056896825013, 4.833322043103329, 4.553537349763783, 4.173938341930221, 4.5529936466055725, 5.001905881322278, 4.672223501183556, 4.272681683273719, 4.41214586455478, 4.591526957517215, 4.6511277198440775, 4.790569623824201, 4.660530360820188, 4.2111259482947965, 4.200861567460223, 4.759446089237468, 5.098452122596376, 4.7189252397630055, 4.109893215233416, 4.119580211414172, 4.708027985882235, 5.037006003725487, 4.717383091107212, 4.238126395755756, 4.247798525631687, 4.6565657040714505, 4.815879913020716, 4.645944798653384, 4.495969486126208, 4.395881709411234, 4.48534327383789, 4.724435187853196, 4.584439536945877, 4.274869282471424, 4.543864242005099, 4.992385752170168, 4.71274575535549, 4.153844383651827, 4.243271984284985, 4.691737585722247, 4.860923018409334, 4.720935632951274, 4.381503148713089, 4.171728786764887]"
noel3,1,08:48:02.007,08:48:03.006,"[1.7846026481214623, 1.268525817360863, 0.2787556380448501, 0.0, 0.0, 0.0, 0.0, 121.22902895707767, 68.68426062459456, 0.0, 0.5891425577017122, 8.279333613106854, 11.49475463434734, 1.7498087247938132, 0.0, 0.0, 18.01670365758833, 16.3809788237442, 10.869017187683056, 8.074188798294811, 0.0, 0.0, 5.171061228370784, 12.974165666710809, 10.117963276789862, 6.942037645490366, 4.4069310863415865, 0.7116858578458545, 1.6948745329557156, 6.803536324877372, 8.576854733898225, 6.577760572196354, 4.912802961382003, 4.078136485221329, 3.727564735617334, 4.642175012053906, 5.8983625974173925, 6.006600300148202, 5.398181613084724, 4.988083731160602, 4.723834687401447, 4.467557924892506, 4.631908874136037, 5.353291495365276, 5.778265367225151, 5.287984921348413, 4.605201901412191, 4.528544960416961, 4.843546179650496, 5.170230176127085, 5.278185414099905, 4.963725593565738, 4.69639265910932, 4.930684585533017, 5.108202174938015, 4.869548808904591, 4.785773787364541, 4.964958710221513, 4.979200206225944, 4.964427314920068, 4.989056956774318, 4.739136673296369, 4.616360571501475, 5.035651115353288, 5.229841212585561, 4.840846439139586, 4.648991769525727, 4.835144229254842, 4.89333083321633, 4.953118025276559, 5.034808929531786, 4.770293340753719, 4.77586137672763, 4.8254171808010975, 4.990731819933643, 4.7697720037610685, 4.609876218640462, 4.778280653263031, 4.917027192427555, 4.964080440892275, 4.849673131541677, 4.542554442320408, 4.606635449412999, 5.084954624001261, 5.054735985056432, 4.61818668772775, 4.683570925627388, 4.914198471217322, 4.747124544783587, 4.754768684831789, 4.967060532608214, 4.721452359762723, 4.504663442989492, 4.912901173178014, 5.106721100791122, 4.703842987417676, 4.535465421159676, 4.778537669661422, 4.92388938252443, 4.853562521424572, 4.645727249769113, 4.585055655155775, 4.888011895554882, 5.014294535207131, 4.72754044192424, 4.56850741147246, 4.744131550613776, 4.8214280120253, 4.770716302185035, 4.788992235493632, 4.797446338619086, 4.717159173199052, 4.705912007988245, 4.763770354387241, 4.772323954233265, 4.751279182105925, 4.759879335876664, 4.738863911643642, 4.70797587933019, 4.825377605153828, 4.853864197938995, 4.575786162524813, 4.505343817209252, 4.919724457793542, 5.047296152679376, 4.650309054870281, 4.510596550886602, 4.806556759787798, 4.88475008748688, 4.556838357139273, 4.545877099007514, 4.95112729664918, 4.989815753282183, 4.612196169397871, 4.531900116556738, 4.719320542209147, 4.777886963911396, 4.747215763272645, 4.7859896613519055, 4.755337022672676, 4.665152059668072, 4.6741966320110055, 4.732882573157607, 4.741962349194009, 4.73120043795198, 4.740305255660429, 4.719633060751124, 4.698967107669411, 4.708104275120326, 4.707320596248737, 4.7065470797716005, 4.815073545034889, 4.824267218498559, 4.525411616480847, 4.465029139135739, 4.88173296867155, 5.020196350014785, 4.631812467398112, 4.481976740165949, 4.779553851935767, 4.828596969789141, 4.50970768962489, 4.60847991590873, 5.0354995521328405, 4.786202017374381, 4.327971712909402, 4.655607448368061, 5.082791189819081, 4.753851581997587, 4.404970785354978, 4.6730287452713615, 4.851562737569182, 4.622069224659674, 4.68119747902887, 4.849833196333075, 4.6501779148360844, 4.579921287208332, 4.76851270624687, 4.79783081383228, 4.737545583272216, 4.577683786200703, 4.44768390679703, 4.815608094722667, 5.064067919933113, 4.5357005357328735, 4.32601073451515, 4.873323612591969, 5.032207751064336, 4.6531764915491785, 4.483320389002356, 4.542596218014071, 4.651698893410065, 4.870417377494967, 4.939698416880801, 4.590476712554655, 4.340878787613579, 4.699158373707548, 5.127234981338182, 4.787943959666227, 4.269226941316263, 4.478074694522866, 4.926165491414855, 4.885865771453966, 4.67610467658564, 4.56601868048503, 4.535681219446999, 4.774521795730297, 4.933624954820567, 4.594232117485552, 4.404377287107723, 4.723030305920874, 4.882168706806732, 4.7022864613524815, 4.662002840087184, 4.641664533395017, 4.491684348400003, 4.640885801138129, 4.949672060597588, 4.879485610026228, 4.609820555260846, 4.479780555894092, 4.489378464649385, 4.6885005891013805, 4.86768729205397, 4.707725684726227, 4.617587237299522, 4.856651366236439, 4.786470093582855, 4.347159252175702, 4.386709857605952, 4.865252378727025, 5.0345283039596, 4.794738324953464, 4.43520574983214, 4.285195645985741, 4.654049326837456, 5.152643915405594, 4.952754289336458, 4.35369908182356, 4.303473850078065, 4.722281733709006, 4.951497802327129, 4.851390594377366, 4.531719020149549, 4.3417797738353885, 4.640880678659742, 4.989900399708438, 4.869832114209036, 4.61002461698318, 4.489947688241108, 4.459702155638304, 4.659038289766668, 4.868366398202425, 4.728328974421865, 4.628217532582664, 4.777667932154041, 4.697523013712575, 4.437684439641588, 4.52724689117551, 4.776547116356758, 4.83617234506784, 4.835899656210838, 4.665903855897646, 4.306208133890239, 4.345868312820148, 4.90471677969552, 5.144081842299537, 4.7344535402372, 4.364752780689199, 4.444366061770364, 4.63382016979282, 4.82328192307216, 4.98279483156136, 4.663004975041382, 4.193420507833231, 4.482752740536794, 5.101635162482998, 4.931627038957304, 4.432065830945187, 4.451789447189417, 4.671247866220622, 4.760885848922598, 4.790606275201315, 4.580639683170922, 4.4305919137696925, 4.739958323801942, 4.9294849136831616, 4.619638573355753, 4.439625797930146, 4.619172098106814, 4.798724313890079, 4.848437115761523, 4.608494064604766, 4.278651292539863, 4.548109596490986, 5.087267448483399, 4.92723020091937, 4.407592832964998, 4.407369242990641, 4.646884118974429, 4.776524855413507, 4.896180416117642, 4.676200553037547, 4.236447960166073, 4.485969916151471, 5.085138538058255, 4.925094503528618, 4.385430812478967, 4.4051987968122654, 4.7746231278553655, 4.884309889113274, 4.604376594630253, 4.32443869815061, 4.593976065781323, 5.043351323645429, 4.863319909500799, 4.403542644805825, 4.433313105351786, 4.672896636194471, 4.6826899554076, 4.772414098927458, 4.922088650690725, 4.572197257551081, 4.132377153175365, 4.531842096603702, 5.161123194573007, 4.931126047318485, 4.401370821609406, 4.411170955018044, 4.62081220289379, 4.730537001828264, 4.900217504781189, 4.700188363069442, 4.240356156267598, 4.479986272899248, 5.089343304539943, 4.909297655958312, 4.389499882683426, 4.429287563756342, 4.678925558162881, 4.768682081067936, 4.778497099383406, 4.568466384269386, 4.408398846371552, 4.728002205644749, 4.917698734228165, 4.617726023898786, 4.447663864275723, 4.627371213610617, 4.67716590070931, 4.686987596412225, 4.846715173198057, 4.706633521271641, 4.28672417377821, 4.3465157011710085, 4.896011590207031, 5.085731307534028, 4.665816124930906, 4.32584924582284, 4.535559340045746, 4.845215305550093, 4.655159874174418, 4.335175793787496, 4.634843777311913, 5.074439059219475, 4.804426385933491, 4.334518686428851, 4.434302796856049, 4.68400976625523, 4.703839937767851, 4.803629755950424, 4.823462019965079, 4.433501490596116, 4.293412726113859, 4.783012827761447, 4.99275519878106, 4.61278446457406, 4.432714975707533, 4.6024793564158735, 4.7322647087282, 4.802079582429266, 4.622009495114602, 4.282010088426664, 4.531745260964583, 5.081351528547233, 4.901281278311815, 4.371360226710312, 4.381204955835714, 4.650941049293984, 4.750750869262368, 4.860558033302441, 4.750456022549578, 4.320481851540552, 4.280349504862911, 4.829986012585301, 5.089740375772076, 4.699746445569709, 4.349734337581668, 4.429558762374002, 4.719306740411657, 4.899097885476923, 4.669039021292769, 4.289032128589049, 4.51880746901723, 5.028487685059644, 4.858406559348664, 4.378429834869488, 4.418274953286396, 4.67804782750951, 4.777875665358566, 4.777737096020044, 4.537675707531733, 4.38758440894028, 4.717342541965624, 4.907146775332915, 4.607102042365428, 4.447013334268193, 4.616825819842688, 4.676672217181323, 4.716525230746672, 4.766376053729014, 4.506315149074534, 4.356222088748421, 4.7559769380333154, 4.955789320571174, 4.595753702135293, 4.425665632435733, 4.605485251816546, 4.665337416712083, 4.7151928818377336, 4.785043996583058, 4.514980277062486, 4.344890648242987, 4.754660108966472, 4.954482609103052, 4.584440814893412, 4.404352910358581, 4.614174891033206, 4.754014311953352, 4.703897258673969, 4.583795607509183, 4.553674030500428, 4.563544031796277, 4.623403854469848, 4.853228966498689, 4.853102896629002, 4.363076246766899, 4.21297929300628, 4.762744139949913, 5.092555001902573, 4.812484550052445, 4.362444869845333, 4.182352900512238, 4.562157772484953, 5.081939702018649, 4.951840162301605, 4.421810255298203, 4.321703685549962, 4.671520384880971, 4.871364246799364, 4.611285250342124, 4.311211717230256, 4.591044161964828, 5.020854596621756, 4.8107666652115295, 4.360714640256176, 4.400587028592384, 4.660427280114647, 4.800286476896354, 4.790168076467804, 4.520086575340911, 4.36998741971962, 4.709820843668588, 4.899676181397596, 4.599597415724096, 4.449498050640966, 4.609358582756276, 4.649235128367692, 4.6891120631866485, 4.848974774521966, 4.598887426796718, 4.168820448655108, 4.508662915213908, 5.12847513567444, 4.898384931244079, 4.348329136517996, 4.408205664236511, 4.638064628317925, 4.637948584118306, 4.767819460992549, 4.847696027738434, 4.457619348150718, 4.277521150389651, 4.757359901121296, 4.957226607395573, 4.577147166843218, 4.437045084394474, 4.636912824449983, 4.656796939217795, 4.596688059627188]"
noel3,2,08:48:02.506,08:48:03.505,"[4.459702155638304, 4.659038289766668, 4.868366398202425, 4.728328974421865, 4.628217532582664, 4.777667932154041, 4.697523013712575, 4.437684439641588, 4.52724689117551, 4.776547116356758, 4.83617234506784, 4.835899656210838, 4.665903855897646, 4.306208133890239, 4.345868312820148, 4.90471677969552, 5.144081842299537, 4.7344535402372, 4.364752780689199, 4.444366061770364, 4.63382016979282, 4.82328192307216, 4.98279483156136, 4.663004975041382, 4.193420507833231, 4.482752740536794, 5.101635162482998, 4.931627038957304, 4.432065830945187, 4.451789447189417, 4.671247866220622, 4.760885848922598, 4.790606275201315, 4.580639683170922, 4.4305919137696925, 4.739958323801942, 4.9294849136831616, 4.619638573355753, 4.439625797930146, 4.619172098106814, 4.798724313890079, 4.848437115761523, 4.608494064604766, 4.278651292539863, 4.548109596490986, 5.087267448483399, 4.92723020091937, 4.407592832964998, 4.407369242990641, 4.646884118974429, 4.776524855413507, 4.896180416117642, 4.676200553037547, 4.236447960166073, 4.485969916151471, 5.085138538058255, 4.925094503528618, 4.385430812478967, 4.4051987968122654, 4.7746231278553655, 4.884309889113274, 4.604376594630253, 4.32443869815061, 4.593976065781323, 5.043351323645429, 4.863319909500799, 4.403542644805825, 4.433313105351786, 4.672896636194471, 4.6826899554076, 4.772414098927458, 4.922088650690725, 4.572197257551081, 4.132377153175365, 4.531842096603702, 5.161123194573007, 4.931126047318485, 4.401370821609406, 4.411170955018044, 4.62081220289379, 4.730537001828264, 4.900217504781189, 4.700188363069442, 4.240356156267598, 4.479986272899248, 5.089343304539943, 4.909297655958312, 4.389499882683426, 4.429287563756342, 4.678925558162881, 4.768682081067936, 4.778497099383406, 4.568466384269386, 4.408398846371552, 4.728002205644749, 4.917698734228165, 4.617726023898786, 4.447663864275723, 4.627371213610617, 4.67716590070931, 4.686987596412225, 4.846715173198057, 4.706633521271641, 4.28672417377821, 4.3465157011710085, 4.896011590207031, 5.085731307534028, 4.665816124930906, 4.32584924582284, 4.535559340045746, 4.845215305550093, 4.655159874174418, 4.335175793787496, 4.634843777311913, 5.074439059219475, 4.804426385933491, 4.334518686428851, 4.434302796856049, 4.68400976625523, 4.703839937767851, 4.803629755950424, 4.823462019965079, 4.433501490596116, 4.293412726113859, 4.783012827761447, 4.99275519878106, 4.61278446457406, 4.432714975707533, 4.6024793564158735, 4.7322647087282, 4.802079582429266, 4.622009495114602, 4.282010088426664, 4.531745260964583, 5.081351528547233, 4.901281278311815, 4.371360226710312, 4.381204955835714, 4.650941049293984, 4.750750869262368, 4.860558033302441, 4.750456022549578, 4.320481851540552, 4.280349504862911, 4.829986012585301, 5.089740375772076, 4.699746445569709, 4.349734337581668, 4.429558762374002, 4.719306740411657, 4.899097885476923, 4.669039021292769, 4.289032128589049, 4.51880746901723, 5.028487685059644, 4.858406559348664, 4.378429834869488, 4.418274953286396, 4.67804782750951, 4.777875665358566, 4.777737096020044, 4.537675707531733, 4.38758440894028, 4.717342541965624, 4.907146775332915, 4.607102042365428, 4.447013334268193, 4.616825819842688, 4.676672217181323, 4.716525230746672, 4.766376053729014, 4.506315149074534, 4.356222088748421, 4.7559769380333154, 4.955789320571174, 4.595753702135293, 4.425665632435733, 4.605485251816546, 4.665337416712083, 4.7151928818377336, 4.785043996583058, 4.514980277062486, 4.344890648242987, 4.754660108966472, 4.954482609103052, 4.584440814893412, 4.404352910358581, 4.614174891033206, 4.754014311953352, 4.703897258673969, 4.583795607509183, 4.553674030500428, 4.563544031796277, 4.623403854469848, 4.853228966498689, 4.853102896629002, 4.363076246766899, 4.21297929300628, 4.762744139949913, 5.092555001902573, 4.812484550052445, 4.362444869845333, 4.182352900512238, 4.562157772484953, 5.081939702018649, 4.951840162301605, 4.421810255298203, 4.321703685549962, 4.671520384880971, 4.871364246799364, 4.611285250342124, 4.311211717230256, 4.591044161964828, 5.020854596621756, 4.8107666652115295, 4.360714640256176, 4.400587028592384, 4.660427280114647, 4.800286476896354, 4.790168076467804, 4.520086575340911, 4.36998741971962, 4.709820843668588, 4.899676181397596, 4.599597415724096, 4.449498050640966, 4.609358582756276, 4.649235128367692, 4.6891120631866485, 4.848974774521966, 4.598887426796718, 4.168820448655108, 4.508662915213908, 5.12847513567444, 4.898384931244079, 4.348329136517996, 4.408205664236511, 4.638064628317925, 4.637948584118306, 4.767819460992549, 4.847696027738434, 4.457619348150718, 4.277521150389651, 4.757359901121296, 4.957226607395573, 4.577147166843218, 4.437045084394474, 4.636912824449983, 4.656796939217795, 4.596688059627188, 4.676567555892652, 4.68645317396545, 4.586347751955487, 4.576235158160723, 4.63611735157906, 4.626005139961524, 4.6258923282612665, 4.645778242991138, 4.635666487079106, 4.605556235548263, 4.615443359299985, 4.6353300087132485, 4.625218801900997, 4.625107087678596, 4.634994906799981, 4.604885310550715, 4.584775189421454, 4.674658831981732, 4.804540609847057, 4.644438781766969, 4.284347389140312, 4.354232725277271, 4.954091333199622, 5.153971488581545, 4.483894504780314, 4.0638041817226656, 4.563670530532682, 5.013540443251101, 4.823439562962632, 4.513343482848542, 4.433237269360362, 4.463126554104592, 4.5630132741167575, 4.802894976945894, 5.002778793900348, 4.722680478674194, 4.12259291849827, 4.252479375414314, 5.012345375935465, 5.052236086985602, 4.39214875438064, 4.262044274961163, 4.691923293220411, 4.851810851807807, 4.611709755374092, 4.451606204797516, 4.691492219948141, 4.871380230865175, 4.561280357982825, 4.271179596083496, 4.551065755626852, 4.890951167595245, 4.790846304426376, 4.590743360498657, 4.470638662347824, 4.370533500574954, 4.6504215484266345, 5.08030752621596, 4.780206078759633, 4.160109292492647, 4.339999786656842, 4.869885585411341, 4.849779653964843, 4.609676636165618, 4.509571649619201, 4.479465781629045, 4.689357237501824, 4.849249531054662, 4.5391468442872345, 4.349042727703452, 4.6789337282322805, 4.858826416283861, 4.568723160164336, 4.38861883767423, 4.648511234335163, 4.848404323311465, 4.628300292402264, 4.498195592063617, 4.688089071725964, 4.6579838734156365, 4.337880073403532, 4.497773979611373, 4.9876667076251895, 4.827562215445254, 4.337458776585204, 4.447353219512719, 4.8072470644669, 4.75714218195293, 4.497037781191421, 4.436932877265515, 4.606827564910151, 4.786722342309599, 4.766617495427069, 4.526512925301794, 4.346408233145534, 4.556303176936741, 4.936198089183576, 4.926093345269012, 4.445988824274757, 4.115884164262502, 4.445779296412932, 5.075674448771655, 5.085569765862601, 4.375465134918909, 4.065360447113988, 4.585255753071894, 4.995151081845611, 4.825046415783008, 4.604941757959277, 4.464837111170112, 4.344732478212124, 4.544627807259335, 4.834523085975579, 4.694418458415007, 4.574313844811471, 4.724209100655327, 4.624104486021618, 4.433999967942846, 4.553895189169613, 4.643790395932475, 4.67368564001374, 4.793580716258424, 4.593476299061304, 4.263372219316913, 4.563266853159737, 5.013160937312224, 4.753056747468896, 4.352953113267881, 4.472847929623395, 4.672742352081036, 4.642637548321685, 4.642532605337699, 4.692427395697761, 4.5923228862634735, 4.522218256289501, 4.592112822199743, 4.642007423133162, 4.621902418422152, 4.631797177588681, 4.6116921184979045, 4.571587200565478, 4.68148098617842, 4.721375257596576, 4.441272528697862, 4.3711679127291045, 4.79105807341442, 4.920950990120564, 4.54084975323973, 4.3907460448538655, 4.570638157133057, 4.640531499169017, 4.710424696759296, 4.77031789493148, 4.480216421191267, 4.310113321909695, 4.710000710166162, 4.909891013415546, 4.659789253877251, 4.489686259236123, 4.4095816591294845, 4.499473596837748, 4.869359312303652, 4.779254611770542, 4.35915759931681, 4.529047093524481, 4.828933007795983, 4.578832422035966, 4.478728215651476, 4.708615066965559, 4.60851075866083, 4.518406256393535, 4.688293995196225, 4.538191279704914, 4.448086839497535, 4.837966613927789, 4.847858464040345, 4.387766687003044, 4.427657700961917, 4.767537386620909, 4.6174349869080045, 4.467332808670289, 4.6472175212743565, 4.697107130161829, 4.63700121252029, 4.656891819961567, 4.566787218338036, 4.466683179671679, 4.586568854030019, 4.696454611959448, 4.636348448168199, 4.676237212824228, 4.69612680359849, 4.39603336576056, 4.325927962823829, 4.795792284210608, 4.955673064150656, 4.555586247309203, 4.385486535717656, 4.555366216298661, 4.615252224463172, 4.6951366411754005, 4.775020692772267, 4.484929283427985, 4.314830330501623, 4.714691682628414, 4.9145660504543365, 4.554480721279702, 4.38438212834225, 4.57425640649618, 4.724133059033578, 4.774017041948965, 4.563921826353613, 4.233837083564386, 4.48370425800776, 5.0135463106062295, 4.853447050301058, 4.433371463001128, 4.453256977286274, 4.443145051352821, 4.503026356635811, 4.922872490938539, 4.832767144075647, 4.302706068370526, 4.462576306027311, 4.842422895578381, 4.612332461886756, 4.412239486578419, 4.642099919230277, 4.681980491286167, 4.611873218379842, 4.76174059401096, 4.571647174163643, 4.151581856366361, 4.491425552477239, 5.121231745311261, 4.881144636378624, 4.301101859210057, 4.340980653799768, 4.590831288323435, 4.700699460090254, 4.850561468474488, 4.65047122337014, 4.180419779738799, 4.410269830925285, 5.040060314388374, 4.869966121156441, 4.339926640382075, 4.379802349380141, 4.629645061019527, 4.719511555212923]"
noel3,3,08:48:03.006,08:48:04.005,"[4.676567555892652, 4.68645317396545, 4.586347751955487, 4.576235158160723, 4.63611735157906, 4.626005139961524, 4.6258923282612665, 4.645778242991138, 4.635666487079106, 4.605556235548263, 4.615443359299985, 4.6353300087132485, 4.625218801900997, 4.625107087678596, 4.634994906799981, 4.604885310550715, 4.584775189421454, 4.674658831981732, 4.804540609847057, 4.644438781766969, 4.284347389140312, 4.354232725277271, 4.954091333199622, 5.153971488581545, 4.483894504780314, 4.0638041817226656, 4.563670530532682, 5.013540443251101, 4.823439562962632, 4.513343482848542, 4.433237269360362, 4.463126554104592, 4.5630132741167575, 4.802894976945894, 5.002778793900348, 4.722680478674194, 4.12259291849827, 4.252479375414314, 5.012345375935465, 5.052236086985602, 4.39214875438064, 4.262044274961163, 4.691923293220411, 4.851810851807807, 4.611709755374092, 4.451606204797516, 4.691492219948141, 4.871380230865175, 4.561280357982825, 4.271179596083496, 4.551065755626852, 4.890951167595245, 4.790846304426376, 4.590743360498657, 4.470638662347824, 4.370533500574954, 4.6504215484266345, 5.08030752621596, 4.780206078759633, 4.160109292492647, 4.339999786656842, 4.869885585411341, 4.849779653964843, 4.609676636165618, 4.509571649619201, 4.479465781629045, 4.689357237501824, 4.849249531054662, 4.5391468442872345, 4.349042727703452, 4.6789337282322805, 4.858826416283861, 4.568723160164336, 4.38861883767423, 4.648511234335163, 4.848404323311465, 4.628300292402264, 4.498195592063617, 4.688089071725964, 4.6579838734156365, 4.337880073403532, 4.497773979611373, 4.9876667076251895, 4.827562215445254, 4.337458776585204, 4.447353219512719, 4.8072470644669, 4.75714218195293, 4.497037781191421, 4.436932877265515, 4.606827564910151, 4.786722342309599, 4.766617495427069, 4.526512925301794, 4.346408233145534, 4.556303176936741, 4.936198089183576, 4.926093345269012, 4.445988824274757, 4.115884164262502, 4.445779296412932, 5.075674448771655, 5.085569765862601, 4.375465134918909, 4.065360447113988, 4.585255753071894, 4.995151081845611, 4.825046415783008, 4.604941757959277, 4.464837111170112, 4.344732478212124, 4.544627807259335, 4.834523085975579, 4.694418458415007, 4.574313844811471, 4.724209100655327, 4.624104486021618, 4.433999967942846, 4.553895189169613, 4.643790395932475, 4.67368564001374, 4.793580716258424, 4.593476299061304, 4.263372219316913, 4.563266853159737, 5.013160937312224, 4.753056747468896, 4.352953113267881, 4.472847929623395, 4.672742352081036, 4.642637548321685, 4.642532605337699, 4.692427395697761, 4.5923228862634735, 4.522218256289501, 4.592112822199743, 4.642007423133162, 4.621902418422152, 4.631797177588681, 4.6116921184979045, 4.571587200565478, 4.68148098617842, 4.721375257596576, 4.441272528697862, 4.3711679127291045, 4.79105807341442, 4.920950990120564, 4.54084975323973, 4.3907460448538655, 4.570638157133057, 4.640531499169017, 4.710424696759296, 4.77031789493148, 4.480216421191267, 4.310113321909695, 4.710000710166162, 4.909891013415546, 4.659789253877251, 4.489686259236123, 4.4095816591294845, 4.499473596837748, 4.869359312303652, 4.779254611770542, 4.35915759931681, 4.529047093524481, 4.828933007795983, 4.578832422035966, 4.478728215651476, 4.708615066965559, 4.60851075866083, 4.518406256393535, 4.688293995196225, 4.538191279704914, 4.448086839497535, 4.837966613927789, 4.847858464040345, 4.387766687003044, 4.427657700961917, 4.767537386620909, 4.6174349869080045, 4.467332808670289, 4.6472175212743565, 4.697107130161829, 4.63700121252029, 4.656891819961567, 4.566787218338036, 4.466683179671679, 4.586568854030019, 4.696454611959448, 4.636348448168199, 4.676237212824228, 4.69612680359849, 4.39603336576056, 4.325927962823829, 4.795792284210608, 4.955673064150656, 4.555586247309203, 4.385486535717656, 4.555366216298661, 4.615252224463172, 4.6951366411754005, 4.775020692772267, 4.484929283427985, 4.314830330501623, 4.714691682628414, 4.9145660504543365, 4.554480721279702, 4.38438212834225, 4.57425640649618, 4.724133059033578, 4.774017041948965, 4.563921826353613, 4.233837083564386, 4.48370425800776, 5.0135463106062295, 4.853447050301058, 4.433371463001128, 4.453256977286274, 4.443145051352821, 4.503026356635811, 4.922872490938539, 4.832767144075647, 4.302706068370526, 4.462576306027311, 4.842422895578381, 4.612332461886756, 4.412239486578419, 4.642099919230277, 4.681980491286167, 4.611873218379842, 4.76174059401096, 4.571647174163643, 4.151581856366361, 4.491425552477239, 5.121231745311261, 4.881144636378624, 4.301101859210057, 4.340980653799768, 4.590831288323435, 4.700699460090254, 4.850561468474488, 4.65047122337014, 4.180419779738799, 4.410269830925285, 5.040060314388374, 4.869966121156441, 4.339926640382075, 4.379802349380141, 4.629645061019527, 4.719511555212923, 4.729390179477552, 4.519304260563901, 4.369209247214499, 4.679037718919865, 4.8688847847461165, 4.5688151789629545, 4.398724102459535, 4.578571460813702, 4.648437465755351, 4.678310166731939, 4.728178736483416, 4.468105175839459, 4.318011748055239, 4.7178122571519445, 4.917649613590585, 4.55759727502732, 4.3875082617803045, 4.587344040531192, 4.647207520622225, 4.5770977979757, 4.6469582584374445, 4.656831032624506, 4.556727645177257, 4.536606740566582, 4.606465332205526, 4.606339232099888, 4.5962151561720255, 4.59608849021735, 4.585963906267784, 4.665817332820634, 4.685684627671384, 4.425620955476544, 4.355510906704958, 4.765278739178845, 4.915110615448816, 4.535079722898659, 4.374992815085997, 4.554815457564227, 4.614669139057065, 4.694516561377076, 4.754368656219275, 4.464318812898217, 4.294236390721424, 4.703986884622155, 4.913792688631402, 4.543768830224238, 4.373687224492313, 4.573493884361913, 4.733310999710507, 4.673195187619911, 4.453130023364361, 4.403011820412359, 4.72277382237255, 4.852595190140611, 4.5425611286081535, 4.3924754423116665, 4.552285206853417, 4.632120792383872, 4.691962281515646, 4.7318099135222935, 4.45177093513962, 4.301687013813526, 4.711399431741013, 4.911185496203448, 4.55117882630126, 4.38110300793441, 4.560894264443675, 4.620729965845182, 4.660572527313934, 4.740398418374637, 4.470363548946077, 4.3002901643696445, 4.7099797796378455, 4.90975227657671, 4.539761898696086, 4.37968537504036, 4.56945947223509, 4.619292114508189, 4.659128182534115, 4.738945570590963, 4.468919155737395, 4.298849502014335, 4.708514151998514, 4.908271795044274, 4.538295167249589, 4.378221972202502, 4.567981474362941, 4.597816313975836, 4.637645383142734, 4.827398807003563, 4.567376124445298, 4.117452534732742, 4.45712688647843, 5.0866459005668325, 4.846614899181255, 4.316740407148098, 4.366559581561828, 4.596279716693385, 4.58612850317776, 4.705904566932569, 4.785701065463484, 4.505700530308364, 4.345633948594965, 4.535365545817347, 4.675123497379144, 4.714938394778351, 4.704782150870474, 4.534722434882191, 4.394645935346926, 4.524403369198103, 4.674145907950339, 4.643999736317743, 4.60385972023891, 4.593700192650879, 4.543566295160464, 4.5334059998494425, 4.563218458382739, 4.603023059689721, 4.692792279745355, 4.692621560623823, 4.392659248425499, 4.322538659439952, 4.742069536583975, 4.901780433010236, 4.531873597805962, 4.351832081727611, 4.52153264832176, 4.671244815868034, 4.751006952295297, 4.650905051028571, 4.310989971025222, 4.280836928061836, 4.760280002837362, 5.009898221209145, 4.630020589799978, 4.2701322727829245, 4.369869659020695, 4.659446022461477, 4.839109191351052, 4.689049415266723, 4.319180839449174, 4.279031053367824, 4.7184592247770025, 4.968047182540142, 4.628159178199805, 4.278285740449696, 4.467923102113721, 4.787435509461481, 4.667352619001611, 4.337469768823709, 4.3672484556464894, 4.75667792651844, 5.006235186733583, 4.696338619165807, 4.10672649518304, 4.126511432036388, 4.845582673995486, 5.155059177417709, 4.575452742277429, 4.125721375368549, 4.405224337739039, 4.764634290656189, 4.744446810916093, 4.534466717334219, 4.394412914078063, 4.583992349914198, 4.903419374888231, 4.643499821571064, 4.153850684173456, 4.353407917280432, 4.852605733877994, 4.802444764142111, 4.542536470062031, 4.522341790465972, 4.432232426968232, 4.382074535729195, 4.761377282324559, 4.940922315113375, 4.461306864271918, 4.151482991162418, 4.540750407485534, 4.890058682583326, 4.660130943203094, 4.400248871499455, 4.5398269535425495, 4.63945483114851, 4.559329347171449, 4.628993514497724, 4.628753862234857, 4.388858168387687, 4.378633892259203, 4.707908731457349, 4.85743919814501, 4.567624091430895, 4.30777124209175, 4.477265753675063, 4.756582645470711, 4.736358806072, 4.496482514513646, 4.356452702770187, 4.4360701222136125, 4.675421450367081, 4.8348949584866245, 4.61499618615329, 4.315238821725534, 4.434773464596927, 4.753956708084532, 4.763667241090861, 4.503851954511586, 4.264009201163259, 4.343597053694272, 4.842414412889784, 5.061725977532355, 4.442591708079759, 4.00314182099537, 4.491937248916664, 4.97072952727271, 4.780803747576479, 4.451159657004218, 4.27122940592874, 4.3008825361361005, 4.699779464269885, 4.998861960717729, 4.679218474741715, 4.25979806425204, 4.319374076664346, 4.568536325484706, 4.717901885205091, 4.727565888684119, 4.527694417187164, 4.367740679572593, 4.537041631074135, 4.686377507342224, 4.516448283081029, 4.426337243599689, 4.635513904534987, 4.784821199258071, 4.644824548438796, 4.325277042656865, 4.155371050367537, 4.544059165019807, 5.042440984131388, 4.822649987886881, 4.293679504945628, 4.273390282999594, 4.5423238197738, 4.611778929318065, 4.631363620859813, 4.660916350448929, 4.560828699824028]"
noel4,1,08:48:08.229,08:48:09.228,"[1.7860732081547366, 1.269583464981631, 0.2796790808026754, 0.0, 0.0, 0.0, 0.0, 121.08699625473918, 69.11219792439734, 0.0, 0.4559288391345957, 8.26794655666069, 11.451924880718456, 1.7132132248295893, 0.0, 0.0, 17.858723544572836, 16.50198877270212, 11.082941093544305, 7.983575892797681, 0.0, 0.0, 5.312329731609198, 12.821787248274312, 9.947783208832764, 7.044701271733571, 4.528920123499585, 0.6862580620435805, 1.7534637742465322, 6.818368528357051, 8.209243117810267, 6.417540845665274, 5.477440618851719, 4.433349056924313, 3.294146536676403, 4.296121307232675, 5.950721503114477, 6.031727210956625, 5.58007528228171, 5.235664892748376, 4.479812587168071, 4.18515628130108, 4.948104886917108, 5.557616552205717, 5.379164981158651, 5.095887582598647, 4.896832586700621, 4.678077088279429, 4.831022435251337, 5.147965233323578, 4.996634484101869, 4.816090812698072, 5.107469870551383, 5.168570719238186, 4.76549830191252, 4.671499604355216, 4.956517282030036, 5.028639678972495, 4.925618083933692, 4.939758616696074, 4.914978810574808, 4.811762989377251, 4.826366450863012, 4.920083390599808, 4.9155763781103925, 4.881498453549012, 4.877196388827377, 4.853094882805412, 4.828986431749035, 4.844883119758599, 4.87072302168873, 4.856085289581665, 4.841412983840919, 4.83985802285437, 4.834400620577348, 4.811453927304723, 4.797016186054978, 4.884113909701222, 4.99379673659428, 4.841907205814473, 4.516401154764678, 4.569186090311756, 5.044680504745703, 5.215922351410521, 4.847971805745892, 4.507214431507892, 4.601027817510545, 4.908763182659787, 4.9940445962296245, 4.729318371125221, 4.619854487002365, 4.910062319247928, 4.995915091901669, 4.6911298834542405, 4.601008395610483, 4.784828551337663, 4.841651459527418, 4.878994559889205, 4.906618438560343, 4.620314365269824, 4.480993749396399, 4.901488041925913, 5.09640392320128, 4.7310712445651015, 4.5621789487121625, 4.737625771879976, 4.785262247801049, 4.83296819176554, 4.910299299028926, 4.642734126936392, 4.473610815866553, 4.876473321750752, 5.072428857973869, 4.70597335963916, 4.546642394653295, 4.732875104052932, 4.780946658427977, 4.819186840841994, 4.8970008115125845, 4.628886872207363, 4.459542840179417, 4.863762743448599, 5.060449269542556, 4.693262314195973, 4.533763626378229, 4.720664308464129, 4.769053105168265, 4.807576250477781, 4.885747501669169, 4.6172575218920295, 4.4477656667804295, 4.852973124011976, 5.05020201994493, 4.682494034316248, 4.5228807275519465, 4.710280367074023, 4.7589117124567295, 4.797652813086664, 4.876098252978346, 4.607333228969533, 4.437735021634687, 4.843693224532523, 5.041339596592714, 4.673240936772016, 4.493688889767822, 4.7013297242205, 4.859381057370699, 4.808926753343507, 4.57969269912752, 4.529218285589824, 4.846313408661871, 4.97471355991795, 4.665950816424884, 4.516133497068232, 4.67438360853149, 4.733281454889914, 4.792199633149482, 4.940606915101276, 4.671488903871418, 4.243248114827644, 4.590545839310618, 5.196466400476635, 4.977037560320149, 4.439307177258085, 4.468469760790793, 4.696597058349642, 4.805386568054219, 4.9440469321460245, 4.74444139093301, 4.286101297495188, 4.534239627128781, 5.140686996932924, 4.9709242175992925, 4.442830192187102, 4.47208941291858, 4.710403034177118, 4.779516428039599, 4.898423006952787, 4.8182240770104485, 4.389530855442504, 4.349134601454592, 4.896262974938204, 5.144701269172771, 4.725911349056251, 4.376799080554688, 4.585425426797912, 4.883725402564123, 4.773651779846444, 4.474299725621817, 4.493713507971788, 4.861828236900436, 5.110425327913715, 4.801087533542019, 4.212731307842062, 4.252092085342859, 4.969080089790746, 5.2875192152486585, 4.709063706429197, 4.170428103284381, 4.429086990693207, 4.946916436623162, 4.976384515849993, 4.746693472911173, 4.536924887907056, 4.40689351026626, 4.6756186485121, 5.014154034732036, 4.76450003215114, 4.445040344975415, 4.5642643567312815, 4.733354946017206, 4.862576101151348, 4.882122496647111, 4.472882136701748, 4.273034719918107, 4.870981990116471, 5.149839407323711, 4.571023296011435, 4.311326112663944, 4.72983539432949, 4.849150026855965, 4.659268072877738, 4.688821527038111, 4.648554758583492, 4.518511091090975, 4.78748584409346, 4.976671830763415, 4.577279761312794, 4.297585452862004, 4.586548780467076, 4.925414937158839, 4.93505436400268, 4.69526079595519, 4.4355022264331385, 4.524961413443428, 4.833947956313284, 4.803685311012418, 4.533935425264826, 4.523626945792454, 4.672986852306808, 4.872253032428777, 4.941795816389571, 4.512352461515705, 4.182692793030006, 4.731284984090378, 5.210039943065127, 4.740650886522696, 4.261263154025399, 4.4805360942374985, 4.719782988444287, 4.869208026101546, 5.018641159528575, 4.599112331633995, 4.1396405430861325, 4.558596922170572, 5.127309057651542, 4.947342455235873, 4.407987233708905, 4.228004395033391, 4.72687781563612, 5.17585401486555, 4.656438388896591, 4.146990051695788, 4.76571250870718, 5.154823223517731, 4.55550391137496, 4.395482426560542, 4.714719382178072, 4.514759582309017, 4.544448831918874, 5.10335145444721, 4.9732900668034885, 4.304013445007786, 4.323722430041154, 4.722891302038914, 4.842469269020198, 4.892150166549019, 4.692179720387893, 4.242546994130848, 4.452009311789707, 5.080916502919183, 4.960837081213641, 4.421306631034617, 4.42106183675473, 4.670497400464185, 4.7601444746890165, 4.869770173657576, 4.689761045082878, 4.260056464108558, 4.489537815102379, 5.098568108064807, 4.938534033871622, 4.398946012753747, 4.418691473304445, 4.668172718968111, 4.767832952361015, 4.877485485718909, 4.687478083778526, 4.24774474562852, 4.487256052134476, 5.0963721612701605, 4.936330972744711, 4.376712851789444, 4.40646235143459, 4.775859463560412, 4.885533805546333, 4.605609528030072, 4.33567030420112, 4.595196935396481, 5.034552092523545, 4.864514298789018, 4.404754912074879, 4.414536878210548, 4.654101982260197, 4.783776112607487, 4.883481664557303, 4.7434107361209366, 4.333583692884111, 4.303407833930289, 4.842724704088151, 5.102299402781395, 4.712446804884928, 4.372544869656127, 4.452278988512036, 4.621939413919889, 4.791603779017801, 4.951280307300936, 4.651337282953213, 4.181527786996495, 4.491085598008475, 5.10041142609625, 4.920368717237052, 4.390595871919328, 4.410392274897579, 4.749946369493028, 4.859679928603608, 4.599691709671959, 4.329707593391215, 4.589333504142571, 5.038827107366603, 4.858778269435997, 4.39892532817028, 4.408737691641401, 4.6483918942264815, 4.78811883809064, 4.887875659455767, 4.647862456126591, 4.217972512482794, 4.477624727750615, 5.087054237924337, 4.926987205269014, 4.397153649526692, 4.436955466713405, 4.666640442759191, 4.656476772413696, 4.766240661534207, 4.856018707908053, 4.486072435898095, 4.306010186703761, 4.775567666776055, 4.975287331971019, 4.595340751903566, 4.435266059242501, 4.634989269630803, 4.764754169142892, 4.714619479762122, 4.514565769342392, 4.464430242422549, 4.774104679763084, 4.903877315644214, 4.593879276250733, 4.433801680504173, 4.603556179258667, 4.683358131008896, 4.743171429389224, 4.7829957283854325, 4.502975628672782, 4.352890966345282, 4.762540710248317, 4.96229345256897, 4.602307505492721, 4.4322315747469805, 4.611996378173736, 4.651826069043146, 4.691656693830759, 4.881422771933285, 4.601394061925516, 4.151435631075813, 4.611089547190023, 5.240677546987155, 4.720746038951407, 4.120842672909202, 4.580507276951941, 4.960208512923048, 4.680173427597551, 4.56007402649858, 4.619904823403528, 4.529793617419454, 4.619614495824097, 4.819395816517631, 4.639318685718531, 4.459240445302023, 4.679017876558, 4.7988330129908245, 4.648744001151103, 4.598619623515156, 4.508508919508563, 4.458384420330202, 4.788133337820843, 4.957938004003255, 4.597916779956382, 4.387844931988688, 4.587641756139603, 4.707465622560653, 4.657343446632772, 4.687196825518021, 4.697056866892242, 4.586953165557752, 4.566822526515685, 4.636665949355508, 4.656524628717011, 4.646392340473324, 4.656254754859711, 4.646123142439657, 4.615997288241584, 4.615863505236422, 4.645722103300396, 4.645589145886828, 4.635459136902845, 4.645324295122192, 4.635194921282487, 4.625065827795572, 4.634932091855755, 4.634801189176475, 4.634670623750032, 4.614545120804479, 4.614415157833147, 4.724260207246106, 4.734128968065392, 4.454063069354337, 4.3939471763192754, 4.803728802731871, 4.9435712361914455, 4.573522938599584, 4.423426773355983, 4.613259932954092, 4.673120925580399, 4.633002609717837, 4.692864595372048, 4.682740852725923, 4.582634636845607, 4.562513008860256, 4.622376624603773, 4.742229807649219, 4.742105671100377, 4.452033634340769, 4.371923376230314, 4.871712346765806, 5.031562277420737, 4.3915480100039765, 4.1814594459819, 4.791236109996953, 4.971085258016871, 4.551030640758235, 4.560907123353304, 4.740757781039294, 4.420685204944697, 4.420563700448712, 4.970361789632777, 4.830262258535084, 4.280220570437333, 4.550061989052278, 4.929889725027588, 4.599815486988047, 4.409721384257069, 4.689565114902496, 4.729441205995886, 4.559344305181317, 4.619218244652704, 4.68909143058516, 4.588985606784478, 4.57886892960018, 4.668740783893654, 4.648625798371018, 4.608513191828913, 4.618395111044121, 4.618278360555313, 4.698153281911386, 4.728033945685247, 4.457945782773972, 4.38783660892714, 4.797679767603218, 4.9375509028915365, 4.567471471321282, 4.407371210705046, 4.58723928252056, 4.657118102479168, 4.716998232730107, 4.786877878630336, 4.496788610267925]"
noel4,2,08:48:08.728,08:48:09.728,"[4.869208026101546, 5.018641159528575, 4.599112331633995, 4.1396405430861325, 4.558596922170572, 5.127309057651542, 4.947342455235873, 4.407987233708905, 4.228004395033391, 4.72687781563612, 5.17585401486555, 4.656438388896591, 4.146990051695788, 4.76571250870718, 5.154823223517731, 4.55550391137496, 4.395482426560542, 4.714719382178072, 4.514759582309017, 4.544448831918874, 5.10335145444721, 4.9732900668034885, 4.304013445007786, 4.323722430041154, 4.722891302038914, 4.842469269020198, 4.892150166549019, 4.692179720387893, 4.242546994130848, 4.452009311789707, 5.080916502919183, 4.960837081213641, 4.421306631034617, 4.42106183675473, 4.670497400464185, 4.7601444746890165, 4.869770173657576, 4.689761045082878, 4.260056464108558, 4.489537815102379, 5.098568108064807, 4.938534033871622, 4.398946012753747, 4.418691473304445, 4.668172718968111, 4.767832952361015, 4.877485485718909, 4.687478083778526, 4.24774474562852, 4.487256052134476, 5.0963721612701605, 4.936330972744711, 4.376712851789444, 4.40646235143459, 4.775859463560412, 4.885533805546333, 4.605609528030072, 4.33567030420112, 4.595196935396481, 5.034552092523545, 4.864514298789018, 4.404754912074879, 4.414536878210548, 4.654101982260197, 4.783776112607487, 4.883481664557303, 4.7434107361209366, 4.333583692884111, 4.303407833930289, 4.842724704088151, 5.102299402781395, 4.712446804884928, 4.372544869656127, 4.452278988512036, 4.621939413919889, 4.791603779017801, 4.951280307300936, 4.651337282953213, 4.181527786996495, 4.491085598008475, 5.10041142609625, 4.920368717237052, 4.390595871919328, 4.410392274897579, 4.749946369493028, 4.859679928603608, 4.599691709671959, 4.329707593391215, 4.589333504142571, 5.038827107366603, 4.858778269435997, 4.39892532817028, 4.408737691641401, 4.6483918942264815, 4.78811883809064, 4.887875659455767, 4.647862456126591, 4.217972512482794, 4.477624727750615, 5.087054237924337, 4.926987205269014, 4.397153649526692, 4.436955466713405, 4.666640442759191, 4.656476772413696, 4.766240661534207, 4.856018707908053, 4.486072435898095, 4.306010186703761, 4.775567666776055, 4.975287331971019, 4.595340751903566, 4.435266059242501, 4.634989269630803, 4.764754169142892, 4.714619479762122, 4.514565769342392, 4.464430242422549, 4.774104679763084, 4.903877315644214, 4.593879276250733, 4.433801680504173, 4.603556179258667, 4.683358131008896, 4.743171429389224, 4.7829957283854325, 4.502975628672782, 4.352890966345282, 4.762540710248317, 4.96229345256897, 4.602307505492721, 4.4322315747469805, 4.611996378173736, 4.651826069043146, 4.691656693830759, 4.881422771933285, 4.601394061925516, 4.151435631075813, 4.611089547190023, 5.240677546987155, 4.720746038951407, 4.120842672909202, 4.580507276951941, 4.960208512923048, 4.680173427597551, 4.56007402649858, 4.619904823403528, 4.529793617419454, 4.619614495824097, 4.819395816517631, 4.639318685718531, 4.459240445302023, 4.679017876558, 4.7988330129908245, 4.648744001151103, 4.598619623515156, 4.508508919508563, 4.458384420330202, 4.788133337820843, 4.957938004003255, 4.597916779956382, 4.387844931988688, 4.587641756139603, 4.707465622560653, 4.657343446632772, 4.687196825518021, 4.697056866892242, 4.586953165557752, 4.566822526515685, 4.636665949355508, 4.656524628717011, 4.646392340473324, 4.656254754859711, 4.646123142439657, 4.615997288241584, 4.615863505236422, 4.645722103300396, 4.645589145886828, 4.635459136902845, 4.645324295122192, 4.635194921282487, 4.625065827795572, 4.634932091855755, 4.634801189176475, 4.634670623750032, 4.614545120804479, 4.614415157833147, 4.724260207246106, 4.734128968065392, 4.454063069354337, 4.3939471763192754, 4.803728802731871, 4.9435712361914455, 4.573522938599584, 4.423426773355983, 4.613259932954092, 4.673120925580399, 4.633002609717837, 4.692864595372048, 4.682740852725923, 4.582634636845607, 4.562513008860256, 4.622376624603773, 4.742229807649219, 4.742105671100377, 4.452033634340769, 4.371923376230314, 4.871712346765806, 5.031562277420737, 4.3915480100039765, 4.1814594459819, 4.791236109996953, 4.971085258016871, 4.551030640758235, 4.560907123353304, 4.740757781039294, 4.420685204944697, 4.420563700448712, 4.970361789632777, 4.830262258535084, 4.280220570437333, 4.550061989052278, 4.929889725027588, 4.599815486988047, 4.409721384257069, 4.689565114902496, 4.729441205995886, 4.559344305181317, 4.619218244652704, 4.68909143058516, 4.588985606784478, 4.57886892960018, 4.668740783893654, 4.648625798371018, 4.608513191828913, 4.618395111044121, 4.618278360555313, 4.698153281911386, 4.728033945685247, 4.457945782773972, 4.38783660892714, 4.797679767603218, 4.9375509028915365, 4.567471471321282, 4.407371210705046, 4.58723928252056, 4.657118102479168, 4.716998232730107, 4.786877878630336, 4.496788610267925, 4.336687691939283, 4.746539743605291, 4.946410163421568, 4.576326235617401, 4.406225880677086, 4.606097221289975, 4.765972310306192, 4.70586398839278, 4.485766990732493, 4.435657692146007, 4.75552326819656, 4.885402570076984, 4.575311016304262, 4.425208549110743, 4.585086527574289, 4.664969968773288, 4.724854966509449, 4.764741433533804, 4.484646310237616, 4.334543381034613, 4.744409891898418, 4.944288697782033, 4.58419702655831, 4.414095022463375, 4.593975552894981, 4.633863358373015, 4.683750923818407, 4.863632823883068, 4.603534765741084, 4.1334452915960656, 4.483320417494285, 5.213180915358022, 4.9930809519089845, 4.15300461712406, 4.122896107740002, 4.882758758635235, 5.13264123657879, 4.622550567381493, 4.202455956469394, 4.352342085015342, 4.802219156599458, 5.002104847387224, 4.7420046504949545, 4.391906650508228, 4.38179865872034, 4.581685102376063, 4.781571999733301, 4.911461100481114, 4.601361205665562, 4.171263695993678, 4.46114926924142, 5.0610286365220665, 4.890925247992216, 4.370828770238468, 4.380721241784587, 4.700607997741779, 4.820498913260802, 4.660394929010625, 4.400292458288729, 4.360186201926781, 4.730073712194335, 5.069962223725899, 4.849859064086631, 4.219761163610316, 4.069656448142314, 4.75954143488099, 5.169430533973022, 4.699329827820861, 4.339227510015042, 4.479119918772897, 4.509013569506523, 4.6589062486771695, 5.058797044103812, 4.798693483721365, 4.128592771339007, 4.288485721262614, 4.888375996479945, 4.888270498825257, 4.608166641946593, 4.498061706032058, 4.47795628941541, 4.677849901423058, 4.85774378328821, 4.567639646429959, 4.267535394459826, 4.547429118460112, 5.017322490604168, 4.897217734522915, 4.297114093543815, 4.137009235499762, 4.7769028129070215, 5.156797151456468, 4.586693073909385, 4.146588626851176, 4.576483095017548, 4.956377785063432, 4.7662730553504185, 4.496168339904624, 4.35606350898073, 4.395958596495479, 4.765853615479111, 5.03574873686105, 4.785643982182969, 4.3555392223304645, 4.265434421014008, 4.575329622445084, 4.885224846468515, 4.78512007939125, 4.475015320855852, 4.414910571169443, 4.664805805331994, 4.824701029067464, 4.664596298003142, 4.434491610722955, 4.464386863303298, 4.704282001967934, 4.854177134069509, 4.664072478673607, 4.303968027843879, 4.313863283589551, 4.783757942846541, 5.093652645329005, 4.76354827772223, 4.233444417584306, 4.253339612522951, 4.6932337785895495, 4.9631281487689325, 4.743023788034815, 4.34292011300176, 4.41281499276566, 4.832708451757143, 4.812603455403743, 4.462499946887991, 4.452394988077276, 4.63228900063774, 4.732183297606661, 4.802077662514925, 4.571973890949322, 4.201871257115121, 4.481764097868015, 5.0716542001257086, 4.89155013853729, 4.331449573535442, 4.341344190785367, 4.691235393053376, 4.831128366908601, 4.671024432541834, 4.400921898163302, 4.370816714460831, 4.750706297993769, 4.980597368266514, 4.670495636397581, 4.310394970437035, 4.400287848666272, 4.730176726914356, 4.8900679206531725, 4.609966447298393, 4.239866929665583, 4.499756064649764, 4.999640068418388, 4.829536827006517, 4.369439876966537, 4.389333097980417, 4.6092216892714, 4.709112664091224, 4.819003152973068, 4.708898908858403, 4.288802838765383, 4.2686966681329, 4.808574890205805, 5.058460373935012, 4.668364274222575, 4.308267900166007, 4.3981579339130095, 4.6880412033831655, 4.877927161052959, 4.637827484804326, 4.257733177055196, 4.487617248645445, 4.997490204961184, 4.827388292512394, 4.357298581480881, 4.387189352937608, 4.627071133631915, 4.7369578773102425, 4.836844703208504, 4.606746191940998, 4.176657444634796, 4.43653659275857, 5.056397330565482, 4.886296176294899, 4.356213889537088, 4.366104290840943, 4.605982101203442, 4.705866928681356, 4.825750233629115, 4.63565109847471, 4.195567208759544, 4.435443042295231, 5.045295069318855, 4.875194869331052, 4.345118426354321, 4.375006142910494, 4.614879371701004, 4.704762169218174, 4.824642429231366, 4.634544634963493, 4.194465765366036, 4.434336765286101, 5.04417835202586, 4.884078430741618, 4.324010973459271, 4.353896857115169, 4.723754088568256, 4.833632091074105, 4.553543447566419, 4.283454705234715, 4.543318869777528, 4.983165405492743, 4.813067446090809, 4.35299763178266, 4.362883532315136, 4.602746417084494, 4.742618354007728, 4.842493710919362, 4.602404128093125, 4.17233553384796, 4.432193497188739, 5.042011604432152, 4.881913733717648, 4.351858639413302, 4.3817402664796665, 4.641594342909955, 4.631479701948944, 4.631363680406825, 4.701238736503438, 4.621132308160721, 4.501031170372203, 4.560906762431111, 4.620781890627058, 4.610666024430783, 4.620547240399003, 4.61043099543227, 4.570318842782943, 4.660187890550201, 4.700063638345569, 4.4299851596494255, 4.3598774589510025, 4.779694559650729, 4.919553131395758]"
noel4,3,08:48:09.231,08:48:10.231,"[4.336687691939283, 4.746539743605291, 4.946410163421568, 4.576326235617401, 4.406225880677086, 4.606097221289975, 4.765972310306192, 4.70586398839278, 4.485766990732493, 4.435657692146007, 4.75552326819656, 4.885402570076984, 4.575311016304262, 4.425208549110743, 4.585086527574289, 4.664969968773288, 4.724854966509449, 4.764741433533804, 4.484646310237616, 4.334543381034613, 4.744409891898418, 4.944288697782033, 4.58419702655831, 4.414095022463375, 4.593975552894981, 4.633863358373015, 4.683750923818407, 4.863632823883068, 4.603534765741084, 4.1334452915960656, 4.483320417494285, 5.213180915358022, 4.9930809519089845, 4.15300461712406, 4.122896107740002, 4.882758758635235, 5.13264123657879, 4.622550567381493, 4.202455956469394, 4.352342085015342, 4.802219156599458, 5.002104847387224, 4.7420046504949545, 4.391906650508228, 4.38179865872034, 4.581685102376063, 4.781571999733301, 4.911461100481114, 4.601361205665562, 4.171263695993678, 4.46114926924142, 5.0610286365220665, 4.890925247992216, 4.370828770238468, 4.380721241784587, 4.700607997741779, 4.820498913260802, 4.660394929010625, 4.400292458288729, 4.360186201926781, 4.730073712194335, 5.069962223725899, 4.849859064086631, 4.219761163610316, 4.069656448142314, 4.75954143488099, 5.169430533973022, 4.699329827820861, 4.339227510015042, 4.479119918772897, 4.509013569506523, 4.6589062486771695, 5.058797044103812, 4.798693483721365, 4.128592771339007, 4.288485721262614, 4.888375996479945, 4.888270498825257, 4.608166641946593, 4.498061706032058, 4.47795628941541, 4.677849901423058, 4.85774378328821, 4.567639646429959, 4.267535394459826, 4.547429118460112, 5.017322490604168, 4.897217734522915, 4.297114093543815, 4.137009235499762, 4.7769028129070215, 5.156797151456468, 4.586693073909385, 4.146588626851176, 4.576483095017548, 4.956377785063432, 4.7662730553504185, 4.496168339904624, 4.35606350898073, 4.395958596495479, 4.765853615479111, 5.03574873686105, 4.785643982182969, 4.3555392223304645, 4.265434421014008, 4.575329622445084, 4.885224846468515, 4.78512007939125, 4.475015320855852, 4.414910571169443, 4.664805805331994, 4.824701029067464, 4.664596298003142, 4.434491610722955, 4.464386863303298, 4.704282001967934, 4.854177134069509, 4.664072478673607, 4.303968027843879, 4.313863283589551, 4.783757942846541, 5.093652645329005, 4.76354827772223, 4.233444417584306, 4.253339612522951, 4.6932337785895495, 4.9631281487689325, 4.743023788034815, 4.34292011300176, 4.41281499276566, 4.832708451757143, 4.812603455403743, 4.462499946887991, 4.452394988077276, 4.63228900063774, 4.732183297606661, 4.802077662514925, 4.571973890949322, 4.201871257115121, 4.481764097868015, 5.0716542001257086, 4.89155013853729, 4.331449573535442, 4.341344190785367, 4.691235393053376, 4.831128366908601, 4.671024432541834, 4.400921898163302, 4.370816714460831, 4.750706297993769, 4.980597368266514, 4.670495636397581, 4.310394970437035, 4.400287848666272, 4.730176726914356, 4.8900679206531725, 4.609966447298393, 4.239866929665583, 4.499756064649764, 4.999640068418388, 4.829536827006517, 4.369439876966537, 4.389333097980417, 4.6092216892714, 4.709112664091224, 4.819003152973068, 4.708898908858403, 4.288802838765383, 4.2686966681329, 4.808574890205805, 5.058460373935012, 4.668364274222575, 4.308267900166007, 4.3981579339130095, 4.6880412033831655, 4.877927161052959, 4.637827484804326, 4.257733177055196, 4.487617248645445, 4.997490204961184, 4.827388292512394, 4.357298581480881, 4.387189352937608, 4.627071133631915, 4.7369578773102425, 4.836844703208504, 4.606746191940998, 4.176657444634796, 4.43653659275857, 5.056397330565482, 4.886296176294899, 4.356213889537088, 4.366104290840943, 4.605982101203442, 4.705866928681356, 4.825750233629115, 4.63565109847471, 4.195567208759544, 4.435443042295231, 5.045295069318855, 4.875194869331052, 4.345118426354321, 4.375006142910494, 4.614879371701004, 4.704762169218174, 4.824642429231366, 4.634544634963493, 4.194465765366036, 4.434336765286101, 5.04417835202586, 4.884078430741618, 4.324010973459271, 4.353896857115169, 4.723754088568256, 4.833632091074105, 4.553543447566419, 4.283454705234715, 4.543318869777528, 4.983165405492743, 4.813067446090809, 4.35299763178266, 4.362883532315136, 4.602746417084494, 4.742618354007728, 4.842493710919362, 4.602404128093125, 4.17233553384796, 4.432193497188739, 5.042011604432152, 4.881913733717648, 4.351858639413302, 4.3817402664796665, 4.641594342909955, 4.631479701948944, 4.631363680406825, 4.701238736503438, 4.621132308160721, 4.501031170372203, 4.560906762431111, 4.620781890627058, 4.610666024430783, 4.620547240399003, 4.61043099543227, 4.570318842782943, 4.660187890550201, 4.700063638345569, 4.4299851596494255, 4.3598774589510025, 4.779694559650729, 4.919553131395758, 4.529494798868425, 4.359402722848698, 4.5392540589134205, 4.719104268049778, 4.798970175999887, 4.578886717861408, 4.208830164351314, 4.458666100234217, 5.118427222769694, 4.958333318316025, 4.158357760001145, 4.1282424850001, 4.807992652129686, 4.957840680387311, 4.577790908040119, 4.477687627521151, 4.587542536479647, 4.537429088122393, 4.557301218558542, 4.67715204786999, 4.667029462737826, 4.566926001849867, 4.5668010547753, 4.58667140288766, 4.576548061465717, 4.596417678064384, 4.626284575754137, 4.60616265256632, 4.586040554490741, 4.585913488696775, 4.595783689782046, 4.585658438771556, 4.5955279560511855, 4.605397093757947, 4.595270966354562, 4.585144585970113, 4.595012697525717, 4.594883076096514, 4.594753126029075, 4.5946228443222354, 4.594492227950569, 4.594361273864111, 4.594229978987995, 4.594098340222176, 4.593966354441109, 4.573839909517567, 4.573707294377581, 4.6835411033514776, 4.69340430019999, 4.413356834392137, 4.343245331419232, 4.74298487323591, 4.882804437313688, 4.622752582780335, 4.482662911679102, 4.392557323433323, 4.392421731606537, 4.762159463560761, 4.961952480602903, 4.58194621492892, 4.331896732646296, 4.511694990879564, 4.641509427416185, 4.611381002815665, 4.651226448430097, 4.661082385768333, 4.550983397352541, 4.5108580584808085, 4.5806898724923455, 4.61053635525344, 4.600398046857532, 4.600255360962095, 4.580120376647554, 4.659943915880837, 4.669795421771415, 4.409760240853595, 4.349641801030487, 4.769316363505245, 4.909108516740229, 4.52912834979277, 4.369053289463246, 4.558821316612913, 4.628641722219692, 4.5985071027853, 4.648334925970936, 4.638190064832914, 4.538087799262545, 4.527942613540557, 4.597757938375609, 4.607601621535175, 4.597454659958617, 4.607297176310693, 4.597149260395784, 4.567011246663288, 4.556862588304343, 4.576697658119688, 4.686483897990786, 4.696322253089311, 4.416318161284746, 4.336206523191976, 4.745822001278356, 4.895578496718558, 4.525628958086292, 4.375556646379676, 4.565287561418399, 4.625092030754924, 4.584954655904086, 4.634763022163521, 4.6346005322336055, 4.534498906202057, 4.524342036330177, 4.594134404011631, 4.593969638938411, 4.5938042248830655, 4.603631667333873, 4.593471425464736, 4.563323913911471, 4.573149356107179, 4.592967204964636, 4.592797767127193, 4.582634553823783, 4.5924568061496185, 4.582292335851888, 4.572127303490974, 4.581947269493348, 4.581773651199373, 4.581599300292203, 4.581424209771715, 4.581248372558371, 4.581071781492013, 4.580894429330653, 4.580716308749243, 4.58053741233844, 4.580357732603311, 4.560193303368929, 4.560012203641434, 4.669740197859721, 4.679548252661312, 4.399597881723929, 4.3194825506879, 4.718957804748624, 4.948571782471194, 4.698599410238749, 4.358710062156428, 4.19866580328288, 4.438263640242882, 5.017546830293527, 4.977387905209504, 4.237878948790753, 4.157764041022429, 4.796966977544451, 4.8367312860095, 4.486871502410078, 4.546616638581766, 4.566399142561775, 4.416350129291058, 4.595970077352569, 4.8055546270334295, 4.545618248361161, 4.375592692412271, 4.655096091872115, 4.744794416744978, 4.464887418839165, 4.4147358251104745, 4.684233065303534, 4.783911585786311, 4.543967761994785, 4.363960507607857, 4.4236817440998815, 4.553319481116933, 4.7828360673430685, 4.9723930938060805, 4.572648348274774, 4.043069214044462, 4.292551755306685, 4.861632647591476, 4.881382073948684, 4.611494442661498, 4.451472893999461, 4.311428699316791, 4.431049588309407, 4.890219966298938, 4.939919794732709, 4.400407247266478, 4.1305431249336655, 4.499809809550435, 4.829119778765033, 4.748991639434262, 4.588977438825016, 4.438952352476057, 4.408757315343947, 4.618211905599914, 4.67787956749802, 4.467945960068179, 4.607490754175338, 4.886816590639222, 4.547085066758898, 4.077565206056828, 4.316944268755528, 4.90575808325902, 4.995352570627353, 4.575769526902743, 4.256035535514994, 4.39554890028645, 4.70477086817504, 4.68453876485038, 4.474630914518916, 4.474365762550611, 4.56394147175475, 4.643529702301044, 4.723113072853047, 4.59307100781653, 4.343251472087877, 4.372922956537973, 4.702031232160167, 4.86144504558073, 4.601651900934096, 4.232079988006353, 4.271721961876631, 4.730531771260961, 4.969758330574855, 4.640121769264567, 4.300518275486418, 4.350123951491328, 4.539433371776036, 4.718752930620982, 4.848168427180376, 4.548502653828216, 4.099176273062369, 4.378260001532665, 4.986591633517373, 4.90644649545966, 4.407261134011042, 4.247314840501418, 4.426581203786921, 4.655717612696376, 4.755149532224155, 4.595201355672102, 4.425283944744588, 4.554632216254455, 4.654045502937636, 4.494107901826783, 4.4339212011676254, 4.563243631252912, 4.702529313087998, 4.732095065363154, 4.462460329219744, 4.133002547424682, 4.451779115683068, 5.0198377490965855]"
